wavelength,absorbance,absorbance_bk,residual_3gauss
117.0,0.79355932249006,0.7880704546319899,0.0007792153984937933
117.5,0.7869856810881409,0.7814968132300708,9.188191861508876e-05
118.0,0.7770649914387554,0.7715761235806853,-0.0029558302898803346
118.5,0.7719495704229613,0.7664607025648912,-0.0002652536551751572
119.0,0.7636763523421125,0.7581874844840424,0.0001449823879636769
119.5,0.7518197695692365,0.7463309017111663,-0.002207844947549331
120.0,0.7471389421799168,0.7416500743218467,0.003376894759772764
120.5,0.7327704616708318,0.7272815938127617,-2.3856310510161904e-05
121.0,0.7206744963366282,0.715185628478558,-0.0005106638066976199
121.5,0.7112527346605894,0.7057638668025192,0.0022562986081604564
122.0,0.6977330455809545,0.6922441777228844,0.0014417283790767454
122.5,0.6829777386735327,0.6774888708154626,-0.00015688202035035737
123.0,0.6683057962260177,0.6628169283679476,-0.0012875184478261525
123.5,0.65311919426175,0.6476303264036799,-0.0026180065806019615
124.0,0.6384490014697591,0.632960133611689,-0.0031907712412855282
124.5,0.6244921291951611,0.6190032613370909,-0.0028871065001111473
125.0,0.6081570021144134,0.6026681342563432,-0.004882657176281668
125.5,0.5929693962468118,0.5874805283887417,-0.005742816668588224
126.0,0.5795947144077488,0.5741058465496787,-0.004901702018301757
126.5,0.5661018222499448,0.5606129543918746,-0.0043994929798159
127.0,0.5533635986799426,0.5478747308218724,-0.0034828714759549406
127.5,0.5408608540095868,0.5353719861515167,-0.002801782008579723
128.0,0.5296016266904215,0.5241127588323514,-0.001490365776574465
128.5,0.5197437936412812,0.5142549257832111,0.0004560049940878219
129.0,0.5106477500746612,0.5051588822165911,0.0022344787012971157
129.5,0.5023887353909536,0.49689986753288357,0.0037489489219909022
130.0,0.4956860969487039,0.49019722909063385,0.0055421217580148285
130.5,0.48972265209487287,0.4842337842368028,0.006618620263744823
131.0,0.48501872715745137,0.4795298592993813,0.007323684120110585
131.5,0.4817135839189586,0.4762247160608885,0.007630092620689033
132.0,0.4801045723931344,0.47461570453506435,0.007683501817730587
132.5,0.48079789256414657,0.4753090247060765,0.007959866061627241
133.0,0.48246058181002666,0.4769717139519566,0.007024289978217246
133.5,0.48625795983576486,0.4807690919776948,0.005975225123597494
134.0,0.4923885441061761,0.48689967624810604,0.004985675835254888
134.5,0.4997860844255647,0.49429721656749465,0.0030107033447126508
135.0,0.5095163035696073,0.5040274357115372,0.001188466563079138
135.5,0.5214400160842435,0.5159511482261734,-0.00049384275151243
136.0,0.5359580102028343,0.5304691423447642,-0.0014540437794460237
136.5,0.552673538325807,0.5471846704677369,-0.0018533267969612632
137.0,0.5710626052323892,0.565573737374319,-0.0019288329855449149
137.5,0.5917578723257876,0.5862690044677175,-0.0007146282201880849
138.0,0.6131064883517864,0.6076176204937163,0.0005093497799202318
138.2,0.6222455188697856,0.6167566510117155,0.0015080098959869837
138.4,0.6304517844860538,0.6249629166279836,0.0015623052177817787
138.6,0.6388046885623024,0.6333158207042323,0.0017790375197251906
138.8,0.6470466103258884,0.6415577424678183,0.0019283111597236946
139.0,0.6550868079439981,0.649597940085928,0.0019473202511668397
139.2,0.6628816754649841,0.657392807606914,0.0018204875701457457
139.4,0.6704627249479267,0.6649738570898566,0.0016073272542566075
139.6,0.6776305013422237,0.6721416334841536,0.0011362395941495462
139.8,0.684862732573908,0.6793738647158378,0.0009125411098125369
140.0,0.6919001599454994,0.6864112920874292,0.0007041757412266092
140.2,0.6983562624636748,0.6928673946056046,0.00015132146920671108
140.4,0.7045582211786159,0.6990693533205458,-0.0003927608781034708
140.6,0.7103251899482679,0.7048363220901978,-0.0010835695871771467
140.8,0.7157535263749554,0.7102646585168852,-0.0018002404571068054
141.0,0.7208656092450979,0.7153767413870278,-0.0024968347742870822
141.2,0.7257329805042316,0.7202441126461615,-0.0030792983676731778
141.4,0.7302544161584794,0.7247655483004093,-0.0036274869618138084
141.6,0.7343059592840435,0.7288170914259734,-0.0042452243336230655
141.8,0.7387205395556425,0.7332316716975724,-0.0040807686341619576
142.0,0.7421778123841002,0.7366889445260301,-0.004437053646010991
142.2,0.7455685586991149,0.7400796908410447,-0.004407363891396843
142.4,0.7486078691230371,0.743119001264967,-0.0042622198859298965
142.6,0.7510452968881518,0.7455564290300817,-0.004239289311575578
142.8,0.7535711741041203,0.7480823062460502,-0.0036371297058533925
143.0,0.7553441545333733,0.7498552866753032,-0.0032876997784072604
143.2,0.7568161274108641,0.751327259552794,-0.0027314951357316763
143.4,0.7574387518997734,0.7519498840417033,-0.0025110591656226644
143.6,0.7577292307765168,0.7522403629184466,-0.002105250829572358
143.8,0.757745266948872,0.7522563990908019,-0.0014543260663643087
144.0,0.7567621830955072,0.7512733152374371,-0.0012828527534451961
144.2,0.7556426995921014,0.7501538317340313,-0.0007299641816774782
144.4,0.7536091621871996,0.7481202943291295,-0.0005771595423769149
144.6,0.7506251905157485,0.7451363226576784,-0.0008666800961018017
144.8,0.7478765585769904,0.7423876907189203,-0.00042064940440156295
145.0,0.7447245670934478,0.7392356992353777,0.00011228307510668945
145.2,0.7407996512710654,0.7353107834129953,0.0003505396587886178
145.4,0.7365918319436672,0.731102964085597,0.0007700628138287424
145.6,0.7318237953249122,0.726334927466842,0.0010774012849942283
145.8,0.7269477202592409,0.7214588524011708,0.0017065550386423656
146.0,0.7214845255518176,0.7159956576937475,0.0021582541100299
146.2,0.7153390301722571,0.709850162314187,0.0023151669367563743
146.4,0.7090432757400348,0.7035544078819647,0.0026852905833611995
146.6,0.702519024387627,0.6970301565295569,0.003164539060962146
146.8,0.6950664448603772,0.689577577002307,0.0030255456963609317
147.0,0.6874871731828704,0.6819983053248003,0.0030408688168275244
147.2,0.6794700329678102,0.67398116510974,0.002868888438422257
147.4,0.6709746086614261,0.665485740803356,0.0024375893588636233
147.6,0.6620274183210929,0.6565385504630228,0.0017409786653969084
147.8,0.6530195577059189,0.6475306898478488,0.001137009974468306
148.0,0.6440005393003617,0.6385116714422916,0.0006417375044748264
148.2,0.6351294561831028,0.6296405883250327,0.0003808281652379897
148.4,0.6266755963815599,0.6211867285234898,0.0005905542422761645
148.6,0.6183214462470258,0.6128325783889557,0.0009212007331476091
148.8,0.6103264624325135,0.6048375945744434,0.001601260994088749
149.0,0.6024592839952897,0.5969704161372196,0.0023700848772798544
149.2,0.5947520644682782,0.5892631966102081,0.003232650536874271
149.4,0.5869620070453537,0.5814731391872836,0.003921533218877782
149.6,0.5789184280793239,0.5734295602212538,0.0042443854681402104
149.8,0.5710890166660254,0.5656001488079553,0.004650585116212191
150.0,0.5626972254979619,0.5572083576398917,0.004348974527236371
150.5,0.5423871499127845,0.5368982820547143,0.003568902123692985
151.0,0.5222331464963351,0.516744278638265,0.0019338186806049373
151.5,0.5019907514909275,0.49650188363285747,-0.000676220247417092
152.0,0.4822704006529413,0.47678153279487123,-0.0033668420843612767
152.5,0.4639274667738228,0.4584385989157527,-0.0048741551778790915
153.0,0.4465678607714438,0.4410789929133737,-0.005113142782109337
153.5,0.42907958778966954,0.42359071993159947,-0.004712246490456928
154.0,0.4105170644461272,0.4050281965880571,-0.0041976510661957955
154.5,0.39057543148382784,0.38508656362575777,-0.0035795190107613672
155.0,0.36966915007380535,0.3641802822157353,-0.0023166144383721665
155.5,0.3476325468904363,0.34214367903236625,-0.0006354418076162105
156.0,0.3242316352537563,0.31874276739568624,0.0009874564625803606
156.5,0.29985670622305166,0.2943678383649816,0.0025472054556033297
157.0,0.2757740992420419,0.2702852313839718,0.004808764610803928
157.5,0.25133093171459164,0.24584206385652158,0.006567180277173151
158.0,0.22662832000829627,0.2211394521502262,0.007376800101749681
158.5,0.2024025749912945,0.19691370713322442,0.007481355371553894
159.0,0.1782374749382243,0.17274860708015424,0.006062654177479088
159.5,0.15508230427100883,0.14959343641293876,0.003779959327189858
160.0,0.1331825208740682,0.12769365301599814,0.0007069662550585887
160.5,0.1130547886193953,0.10756592076132523,-0.002699710701030658
161.0,0.09489981369444739,0.08941094583637732,-0.006203620796889242
161.5,0.07895195595111137,0.0734630880930413,-0.00946020823940033
162.0,0.06527485893416031,0.05978599107609024,-0.012244252628043711
162.5,0.05380575040768433,0.04831688254961426,-0.01442740884125275
163.0,0.04433208805974968,0.038843220201679615,-0.01602018109939523
163.5,0.036759398665304685,0.03127053080723462,-0.016918464897618286
164.0,0.03067906101794209,0.025190193159872018,-0.01734570972919823
164.5,0.025862823680295986,0.02037395582222592,-0.017364304094188085
165.0,0.0218524652184814,0.016363597360411333,-0.017288510700915763
165.5,0.01906015237346536,0.01357128451539529,-0.016584260786133655
166.0,0.016241574567318583,0.010752706709248513,-0.016394564386796803
166.5,0.014309029094743348,0.008820161236673278,-0.015724071909290514
167.0,0.012754123171833534,0.007265255313763465,-0.015013662590579343
167.5,0.011306395900746264,0.005817528042676195,-0.014479128165361479
168.0,0.010486344427421124,0.004997476569351055,-0.013555690553187704
168.5,0.009834635712883108,0.0043457678548130384,-0.012666680347323747
169.0,0.009473409432770889,0.003984541574700819,-0.011660498905870637
169.5,0.009152193390096857,0.0036633255320267875,-0.010763321847409071
170.0,0.008973349647225539,0.0034844817891554695,-0.009852579673418177
170.5,0.008736315593042965,0.0032474477349728956,-0.009111896553805204
171.0,0.008571225170349616,0.003082357312279547,-0.008396848838868294
171.5,0.008577256550212561,0.003088388692142492,-0.007596150648405112
172.0,0.008673283154202542,0.003184415296132472,-0.006780652063658823
172.5,0.008342633461791902,0.0028537656037218324,-0.00645831557241211
173.0,0.00831293705163444,0.0028240691935643696,-0.005894171850372788
173.5,0.0084216114076077,0.0029327435495376305,-0.005244684678293499
174.0,0.008250219889307306,0.0027613520312372367,-0.004923283046571373
174.5,0.008236914400861512,0.0027480465427914425,-0.00448783798813294
175.0,0.008354255193877955,0.0028653873358078855,-0.003962784177222878
175.5,0.00856199140033427,0.003073123542264201,-0.003386295649761218
176.0,0.008764371331360342,0.0032755034732902723,-0.002852939424052188
176.5,0.009035480703627655,0.003546612845557585,-0.0022883012221004886
177.0,0.00898061186983579,0.00349174401176572,-0.0020875720969264055
177.5,0.009690467031899063,0.004201599173828993,-0.001161284635457476
178.0,0.009737810196743756,0.004248942338673687,-0.00093857588557128
178.5,0.010231547796286145,0.004742679938216076,-0.00031298995180493484
179.0,0.010146644331778918,0.004657776473708849,-0.0003124085561999699
179.5,0.010388060737248652,0.0048991928791785825,-3.491919348085591e-05
180.0,0.01058410888193776,0.005095241023867691,0.0001447717397922363
180.5,0.010946649155698719,0.005457781297628649,0.00043580289335311793
181.0,0.011145817885172231,0.005656950027102162,0.0005061764428409181
181.5,0.01140175411198741,0.005912886253917341,0.0005747870377576392
182.0,0.011620037373836156,0.006131169515766087,0.0005471555325527438
182.5,0.01187372211320066,0.006384854255130591,0.0004977331150677411
183.0,0.01227598798682376,0.006787120128753691,0.0005427738852901189
183.5,0.01249214802095448,0.00700328016288441,0.00035249719130498944
184.0,0.012918101034016643,0.007429233175946574,0.0003296080331022123
184.5,0.013571765181261436,0.008082897323191366,0.0005006987049380124
185.0,0.013950513518143644,0.008461645660073574,0.00037354495977336144
185.5,0.014284138792657716,0.008795270934587646,0.0001898235532657392
186.0,0.01456057333895712,0.00907170548088705,-4.9515473580591385e-05
186.5,0.014940864085589112,0.009451996227519043,-0.00016970655997452372
187.0,0.015477633909489056,0.009988766051418987,-0.00010420314564642784
187.5,0.01571559092904671,0.01022672307097664,-0.0002946999396728125
188.0,0.016001123451900075,0.010512255593830006,-0.0003820744946348275
188.5,0.016571040383045348,0.011082172524975278,-0.00011815660228931338
189.0,0.016639465600535055,0.011150597742464985,-0.0002792868348335531
189.5,0.01675523130734574,0.011266363449275672,-0.00030929288141817377
190.0,0.016907109195869453,0.011418241337799383,-0.0002145242835438054
190.5,0.01670738041076988,0.011218512552699811,-0.0003804312231996173
191.0,0.016370350043307575,0.010881482185237506,-0.0005930762373311214
191.5,0.01635619623270169,0.010867328374631622,-0.0003951914331767042
192.0,0.01626099941231269,0.01077213155424262,-0.00019594577588130137
192.5,0.01638514843446959,0.010896280576399521,0.0002977578679896533
193.0,0.016057765216192333,0.010568897358122263,0.0004060764222328199
193.5,0.01579171553172378,0.010302847673653711,0.000631654595853088
194.0,0.01535547136720145,0.009866603509131381,0.0007319275289516484
194.5,0.014920877902724828,0.009432010044654758,0.0008673268781536885
195.0,0.01386601572901136,0.008377147870941291,0.0004045590219750213
195.5,0.013276386544327112,0.007787518686257043,0.00041816526995966125
196.0,0.01203540002958676,0.0065465321715166905,-0.00021867221281364133
196.5,0.011435717882263524,0.005946850024193455,-0.00022253200549188223
197.0,0.010940973353122264,0.005452105495052194,-0.0001378486715795709
197.5,0.01015530077928483,0.004666432921214761,-0.0003672671926607408
198.0,0.009927225424840121,0.0044383575667700514,-6.770252856644517e-05
198.5,0.009213175086322809,0.0037243072282527392,-0.00028683607494680175
199.0,0.008666089885389267,0.0031772220273191976,-0.0003745636827446556
199.5,0.008199131931874723,0.002710264073804654,-0.0004193833822811427
200.0,0.007965072483138255,0.0024762046250681857,-0.00026913457005346263
200.5,0.007565594678473364,0.002076726820403294,-0.0003218402286610869
201.0,0.007153062816400617,0.0016641949583305476,-0.00042409168952252906
201.5,0.007125640038320624,0.0016367721802505548,-0.0001760857855314774
202.0,0.006891289402526775,0.0014024215444567055,-0.00016777260122410377
202.5,0.006649912985037509,0.0011610451269674395,-0.00019685396062572337
203.0,0.0066339922763294845,0.001145124418259415,-2.8265727656749283e-05
203.5,0.006625697288690161,0.0011368294306200915,0.0001228256972076471
204.0,0.006463517078298554,0.0009746492202284841,9.756631513035475e-05
204.5,0.006574230333480911,0.0010853624754108412,0.00032531542563318263
205.0,0.006438229547226367,0.0009493616891562973,0.0002889170532702856
205.5,0.00661799224520178,0.0011291243871317108,0.00055313384231737
206.0,0.00659132731583079,0.00110245945776072,0.0005978695605201571
206.5,0.006597827910639164,0.001108960052569094,0.0006646095883704498
207.0,0.006486724581100275,0.0009978567230302052,0.0006042709348892838
207.5,0.0064796227785244576,0.000990754920454388,0.0006399438652647694
208.0,0.006764213034878142,0.0012753451768080723,0.0009606115848005258
208.5,0.0068111725567415295,0.00132230469867146,0.001038065058846549
209.0,0.006755214418004999,0.0012663465599349298,0.001007967749772234
209.5,0.0067498481522775535,0.001260980294207484,0.0010246329216235634
210.0,0.006655457668417352,0.0011665898103472823,0.0009491185302498134
210.5,0.00669931669229575,0.00121044883422568,0.0010092592206967625
211.0,0.006345996948054614,0.0008571290899845449,0.0006700901610465076
211.5,0.006293648536792371,0.0008047806787223012,0.0006301418535158288
212.0,0.005980791121298731,0.0004919232632286611,0.0003282443504820827
212.5,0.005864115682626886,0.0003752478245568165,0.0002213405671151125
213.0,0.006031907786653504,0.0005430399285834345,0.00039791963490914386
213.5,0.005597882313428386,0.00010901445535831632,-2.8139687788716195e-05
214.0,0.005748251675765053,0.0002593838176949831,0.00012950657932325182
214.5,0.005598923962310385,0.00011005610424031503,-1.3128023195365063e-05
215.0,0.005696998393449108,0.0002081305353790388,9.114020892471456e-05
215.5,0.005570213294062918,8.134543599284862e-05,-2.9882648876885447e-05
216.0,0.005535986544539676,4.711868646960649e-05,-5.872424733472944e-05
216.5,0.005644315981284624,0.00015544812321455475,5.465722636299138e-05
217.0,0.005618880439041967,0.00013001258097189786,3.397632671314623e-05
217.5,0.00571014755281518,0.00022127969474511084,0.00012972993062022428
218.0,0.0056259099440826,0.00013704208601253084,4.9734828966143595e-05
218.5,0.0055598000324558975,7.093217438582794e-05,-1.2356358558650546e-05
219.0,0.005510229020222975,2.136116215290581e-05,-5.8115338029678814e-05
219.5,0.005516309870256783,2.7442012186713362e-05,-4.8414495112783957e-05
220.0,0.0054888678580700696,0.0,-7.241582664767593e-05
