wavelength,absorbance,absorbance_bk,residual_3gauss,Gauss_1,Gauss_2,Gauss_3,Gauss_4,Gauss_fit
117.0,0.79355932249006,0.7880704546319899,0.0007792153258177059,9.642154459857592e-07,4.488472388327419e-55,0.7872902750907262,2.730498891694456e-116,0.7872912393061722
117.5,0.7869856810881409,0.7814968132300708,9.188185538155924e-05,1.7417471450162878e-06,3.1332704395219874e-53,0.7814031896275442,8.496848087226623e-114,0.7814049313746892
118.0,0.7770649914387554,0.7715761235806853,-0.0029558303438171896,3.089416952645373e-06,1.9601952022955686e-51,0.7745288645075499,2.3650041036142125e-111,0.7745319539245025
118.5,0.7719495704229613,0.7664607025648912,-0.0002652536999993016,5.382957846801394e-06,1.101560566129735e-49,0.7667205733070437,5.900945746693003e-109,0.7667259562648905
119.0,0.7636763523421125,0.7581874844840424,0.00014498235203330712,9.216944994598648e-06,5.573229342123634e-48,0.7580332851870145,1.3227039518025693e-106,0.7580425021320091
119.5,0.7518197695692365,0.7463309017111663,-0.0022078449748401674,1.5514547070981226e-05,2.544214795370448e-46,0.7485232321389356,2.6691276090616908e-104,0.7485387466860065
120.0,0.7471389421799168,0.7416500743218467,0.003376894740831804,2.5682537319269196e-05,1.0502324025018555e-44,0.7382474970436956,4.858870396755653e-102,0.7382731795810149
120.5,0.7327704616708318,0.7272815938127617,-2.3856321427095928e-05,4.182542066266017e-05,3.9284071568023886e-43,0.7272636247135261,7.995286726176559e-100,0.7273054501341888
121.0,0.7206744963366282,0.715185628478558,-0.0005106638099544591,6.703466219509738e-05,1.334259974205639e-41,0.7156292576263175,1.1915693770290174e-97,0.7156962922885125
121.5,0.7112527346605894,0.7057638668025192,0.0022562986121578144,0.00010577056289010775,4.123159115602649e-40,0.7034017976274713,1.611483495947474e-95,0.7035075681903614
122.0,0.6977330455809545,0.6922441777228844,0.001441728389876551,0.00016435486330283026,1.1615504610710538e-38,0.690638094469705,1.98138861731043e-93,0.6908024493330078
122.5,0.6829777386735327,0.6774888708154626,-0.00015688200325236767,0.00025159113009345924,2.9888045338759585e-37,0.6773941616886215,2.2189556090150384e-91,0.677645752818715
123.0,0.6683057962260177,0.6628169283679476,-0.0012875184249935279,0.0003795268201216492,7.037564948410496e-36,0.6637249199728195,2.2674770302541063e-89,0.6641044467929411
123.5,0.65311919426175,0.6476303264036799,-0.0026180065526647534,0.0005643650734571363,1.5191765307609204e-34,0.6496839678828875,2.117948786488664e-87,0.6502483329563447
124.0,0.6384490014697591,0.632960133611689,-0.0031907712089493945,0.0008275253166954824,3.0118431906996142e-33,0.6353233795039429,1.8113919488672266e-85,0.6361509048206384
124.5,0.6244921291951611,0.6190032613370909,-0.0028871064641645683,0.0011968394203067977,5.493567962172427e-32,0.6206935283809487,1.4209002985513096e-83,0.6218903678012555
125.0,0.6081570021144134,0.6026681342563432,-0.004882657137601942,0.0017078545096569431,9.234582228183989e-31,0.6058429368842883,1.0239595184433574e-81,0.6075507913939452
125.5,0.5929693962468118,0.5874805283887417,-0.005742816628144687,0.0024051950334974133,1.4330008937049369e-29,0.5908181499833889,6.789976018642352e-80,0.5932233450168863
126.0,0.5795947144077488,0.5741058465496787,-0.004901701977156447,0.003343916259614243,2.0561352633333113e-28,0.5756636322672208,4.1495696908924166e-78,0.5790075485268351
126.5,0.5661018222499448,0.5606129543918746,-0.004399492939117344,0.0045907603907051776,2.7322887069784313e-27,0.5604216869402868,2.3407528994663268e-76,0.565012447330992
127.0,0.5533635986799426,0.5478747308218724,-0.0034828714369261604,0.006225206819593478,3.3678239076878745e-26,0.5451323954392051,1.220617699601266e-74,0.5513576022587986
127.5,0.5408608540095868,0.5353719861515167,-0.002801781972498918,0.008340191867921202,3.856409642353991e-25,0.5298335762560944,5.89271162229883e-73,0.5381737681240156
128.0,0.5296016266904215,0.5241127588323514,-0.0014903657447469243,0.011042363058788024,4.10843434072027e-24,0.5145607615183103,2.637474586022757e-71,0.5256031245770983
128.5,0.5197437936412812,0.5142549257832111,0.00045600502036602375,0.01445173090526029,4.078148393719177e-23,0.4993471898575848,1.09600294199775e-69,0.5137989207628451
129.0,0.5106477500746612,0.5051588822165911,0.00223447872078375,0.018700589393038314,3.777141772655297e-22,0.48422381410276905,4.234335133275079e-68,0.5029244034958074
129.5,0.5023887353909536,0.49689986753288357,0.003748948933548546,0.023931596252073917,3.268764369600286e-21,0.4692193223472611,1.5229856767765032e-66,0.493150918599335
130.0,0.4956860969487039,0.49019722909063385,0.005542121760667429,0.03029493635754413,2.6467761253244642e-20,0.45436017097242226,5.106438375417394e-65,0.4846551073299664
130.5,0.48972265209487287,0.4842337842368028,0.006618620256735652,0.03794453573009341,2.0079102986949004e-19,0.4396706282499737,1.5981390095723706e-63,0.47761516398006715
131.0,0.48501872715745137,0.4795298592993813,0.007323684102959416,0.0470333479988565,1.429000956957423e-18,0.4251728271975654,4.67450763755025e-62,0.4722061751964219
131.5,0.4817135839189586,0.4762247160608885,0.007630092593244098,0.05770779704707345,9.552941796950966e-18,0.41088682642057095,1.2794438012328735e-60,0.4685946234676444
132.0,0.4801045723931344,0.47461570453506435,0.007683501780211099,0.07010152501669953,6.00622241847637e-17,0.39683067773815367,3.280941457671524e-59,0.46693220275485325
132.5,0.48079789256414657,0.4753090247060765,0.007959866014652595,0.08432865923030664,3.5559602618812296e-16,0.38302049946111694,7.891955013430958e-58,0.4673491586914239
133.0,0.48246058181002666,0.4769717139519566,0.007024289922818561,0.10047686976738934,1.984831763742508e-15,0.3694705542617467,1.7827308672651141e-56,0.46994742402913803
133.5,0.48625795983576486,0.4807690919776948,0.005975225061209455,0.11860053626596993,1.0457087999981961e-14,0.35619333065050496,3.786149691930617e-55,0.47479386691648534
134.0,0.4923885441061761,0.48689967624810604,0.00498567576768516,0.13871437333044287,5.206143554265164e-14,0.3431996271499259,7.56843573245958e-54,0.4819140004804209
134.5,0.4997860844255647,0.49429721656749465,0.003010703274088644,0.16078787496162764,2.4520383673116586e-13,0.3304986383315332,1.4255629248127026e-52,0.491286513293406
135.0,0.5095163035696073,0.5040274357115372,0.0011884664917725107,0.18474092726256058,1.0937578693630458e-12,0.31809804195611036,2.5328204624732055e-51,0.5028389692197647
135.5,0.5214400160842435,0.5159511482261734,-0.000493842820980861,0.21044090451187497,4.625565855830289e-12,0.30600408653065364,4.2492912226675514e-50,0.5164449910471542
136.0,0.5359580102028343,0.5304691423447642,-0.0014540438445171944,0.23770150750462427,1.8565872280883306e-11,0.2942216786660912,6.738600429712115e-49,0.5319231861892814
136.5,0.552673538325807,0.5471846704677369,-0.0018533268551598203,0.26628352756410295,7.079785216022407e-11,0.28275446968799584,1.011118392978802e-47,0.5490379973228967
137.0,0.5710626052323892,0.565573737374319,-0.0019288330346054483,0.29589762913454115,2.567539003802605e-10,0.27160494101762944,1.4369529036842306e-46,0.5675025704089245
137.5,0.5917578723257876,0.5862690044677175,-0.0007146282581798058,0.3262091439370616,8.864108858871139e-10,0.2607744879024248,1.9360285145539836e-45,0.5869836327258973
138.0,0.6131064883517864,0.6076176204937163,0.000509349754478583,0.35684476668993265,2.916043677751915e-09,0.2502635011332613,2.475264879990403e-44,0.6071082707392377
138.2,0.6222455188697856,0.6167566510117155,0.0015080098758599725,0.36910016986623667,4.633204092236145e-09,0.24614846663641476,6.7611997974502e-44,0.6152486411358555
138.4,0.6304517844860538,0.6249629166279836,0.0015623052030803164,0.38131620655412074,7.306462800299544e-09,0.24208439756431976,1.8317851965986722e-43,0.6234006114249033
138.6,0.6388046885623024,0.6333158207042323,0.0017790375105197764,0.39346557198177945,1.1436601014451456e-08,0.23807119977533212,4.922653626102799e-43,0.6315367831937125
138.8,0.6470466103258884,0.6415577424678183,0.001928311156042306,0.4055206545969062,1.776954475278083e-08,0.23410875894532499,1.3122695167808517e-42,0.639629431311776
139.0,0.6550868079439981,0.649597940085928,0.0019473202529945999,0.41745365111430666,2.740756485361091e-08,0.2301969413110619,3.470329409608619e-42,0.6476506198329334
139.2,0.6628816754649841,0.657392807606914,0.0018204875774230356,0.42923668366152445,4.1966667623597896e-08,0.2263355944012988,9.104727027986717e-42,0.655572320029491
139.4,0.6704627249479267,0.6649738570898566,0.0016073272668795102,0.44084191827010966,6.37974419712145e-08,0.2225245477554254,2.369933722165652e-41,0.6633665298229771
139.6,0.6776305013422237,0.6721416334841536,0.001136239611969403,0.4522416839504657,9.629227418988251e-08,0.21876361362944424,6.120723939204956e-41,0.6710053938721842
139.8,0.684862732573908,0.6793738647158378,0.0009125411326356136,0.46340859158507064,1.4430901677054225e-07,0.21505258768911475,1.5685226292443307e-40,0.6784613235832022
140.0,0.6919001599454994,0.6864112920874292,0.0007041757688155403,0.4743156518782706,2.1475020239971946e-07,0.21139124969014064,3.988633048658446e-40,0.6857071163186137
140.2,0.6983562624636748,0.6928673946056046,0.00015132150128049915,0.48493639161102325,3.1734804680039e-07,0.20777936414525408,1.0065292014356313e-39,0.6927160731043241
140.4,0.7045582211786159,0.6990693533205458,-0.00039276084186756766,0.4952449674651935,4.6571910643630456e-07,0.20421668097811346,2.5207001709776433e-39,0.6994621141624133
140.6,0.7103251899482679,0.7048363220901978,-0.0010835695471426154,0.5052162767045545,6.787688542015721e-07,0.20070293616393162,6.265155385883278e-39,0.7059198916373404
140.8,0.7157535263749554,0.7102646585168852,-0.0018002404136747696,0.5148260640279348,9.825458666236317e-07,0.19723785235675856,1.5455444148366492e-38,0.71206489893056
141.0,0.7208656092450979,0.7153767413870278,-0.002496834727895192,0.5240510239435702,1.4126679543753976e-06,0.1938211395033984,3.784365558214271e-38,0.717873576114923
141.2,0.7257329805042316,0.7202441126461615,-0.0030792983187919454,0.5328688980525874,2.0174684578001903e-06,0.1904524954439082,9.197915155310088e-38,0.7233234109649535
141.4,0.7302544161584794,0.7247655483004093,-0.0036274869109437224,0.541258566672733,2.8620399280204434e-06,0.18713160649869198,2.219182621163051e-37,0.728393035211353
141.6,0.7343059592840435,0.7288170914259734,-0.00424522428129126,0.549200134280954,4.033384129469292e-06,0.18385814804218112,5.315283491274506e-37,0.7330623157072647
141.8,0.7387205395556425,0.7332316716975724,-0.004080768580917882,0.5566750083043472,5.646911019761271e-06,0.18063178506312327,1.2638973786980378e-36,0.7373124402784903
142.0,0.7421778123841002,0.7366889445260301,-0.004437053592421969,0.5636659708429443,7.854563985787611e-06,0.17745217271152192,2.9838106064796743e-36,0.741125998118452
142.2,0.7455685586991149,0.7400796908410447,-0.004407363838043521,0.5701572429642439,1.0854882579874327e-05,0.17431895683226456,6.994016446042762e-36,0.7444870546790883
142.4,0.7486078691230371,0.743119001264967,-0.004262219833401137,0.5761345412676309,1.4905345227194849e-05,0.1712317744855101,1.6277950535645856e-35,0.7473812210983681
142.6,0.7510452968881518,0.7455564290300817,-0.004239289260462797,0.5815851264764178,2.033736022434539e-05,0.16819025445390234,3.7619414564463703e-35,0.7497957182905445
142.8,0.7535711741041203,0.7480823062460502,-0.0036371296567440092,0.5864978438755039,2.757429059943163e-05,0.16519401773669096,8.633461545713095e-35,0.7517194359027942
143.0,0.7553441545333733,0.7498552866753032,-0.0032876997318787016,0.5908631554730404,3.7152903276381385e-05,0.16224267803086523,1.9676131692955746e-34,0.7531429864071819
143.2,0.7568161274108641,0.751327259552794,-0.0027314950923446046,0.5946731638245444,4.974862120460382e-05,0.1593358421993897,4.453458089564464e-34,0.7540587546451386
143.4,0.7574387518997734,0.7519498840417033,-0.0025110591259135395,0.597921627516919,6.620492402567854e-05,0.1564731107266721,1.0011030706254856e-33,0.7544609431676168
143.6,0.7577292307765168,0.7522403629184466,-0.0021052507940452214,0.6006039683675157,8.756718360123648e-05,0.15365407816137486,2.2351399286966257e-33,0.7543456137124919
143.8,0.757745266948872,0.7522563990908019,-0.0014543260354836773,0.6027172704490646,0.00011512113052093176,0.1508783335467,4.956735026231898e-33,0.7537107251262856
144.0,0.7567621830955072,0.7512733152374371,-0.0012828527276279589,0.6042602711046524,0.00015043602211352742,0.14814546083829916,1.0918730738534998e-32,0.7525561679650651
144.2,0.7556426995921014,0.7501538317340313,-0.0007299641612842356,0.6052333441675695,0.00019541241781111034,0.145455039309935,2.3892099821734671e-32,0.7508837958953155
144.4,0.7536091621871996,0.7481202943291295,-0.0005771595277043184,0.6056384756483146,0.0002523342614557444,0.1428066439470634,5.193525691583453e-32,0.7486974538568338
144.6,0.7506251905157485,0.7451363226576784,-0.0008666800873738945,0.6054792321951453,0.00032392472142515275,0.14019984582848177,1.1215431308982123e-31,0.7460030027450523
144.8,0.7478765585769904,0.7423876907189203,-0.00042064940176278487,0.6047607226749276,0.00041340494954464905,0.13763421249621077,2.406219183409405e-31,0.7428083401206831
145.0,0.7447245670934478,0.7392356992353777,0.0001122830715989398,0.6034895532575142,0.0005245545924801679,0.1351093083137844,5.129080609508673e-31,0.7391234161637787
145.2,0.7407996512710654,0.7353107834129953,0.0003505396491699786,0.6016737764192372,0.0006617725314817852,0.13262469481310624,1.0862967304425496e-30,0.7349602437638253
145.4,0.7365918319436672,0.731102964085597,0.0007700627982334396,0.5993228343092541,0.0008301359480455403,0.13017993103006395,2.2860269792901684e-30,0.7303329012873636
145.6,0.7318237953249122,0.726334927466842,0.0010774012636585173,0.5964474969463184,0.00103545542779039,0.1277745738290748,4.780324035692371e-30,0.7252575262031835
145.8,0.7269477202592409,0.7214588524011708,0.001706555011906974,0.5930597957330204,0.001284323439499069,0.12540817821674438,9.933343494900226e-30,0.7197522973892638
146.0,0.7214845255518176,0.7159956576937475,0.0021582540783405824,0.5891729527897026,0.0015841531808716116,0.1230802976448328,2.0512310585321962e-29,0.7138374036154069
146.2,0.7153390301722571,0.709850162314187,0.0023151669006613584,0.5848013066210714,0.001943204489742962,0.12079048430271125,4.209528576721244e-29,0.7075349954135256
146.4,0.7090432757400348,0.7035544078819647,0.0026852905435075236,0.5799602346351407,0.002370593303818375,0.11853828939949806,8.585600583659725e-29,0.7008691173384571
146.6,0.702519024387627,0.6970301565295569,0.0031645390180886634,0.5746660730366987,0.0028762810386876686,0.11632326343608192,1.740382421854279e-28,0.6938656175114682
146.8,0.6950664448603772,0.689577577002307,0.0030255456512885415,0.5689360346159774,0.003471040267837574,0.11414495646720346,3.5064995959876125e-28,0.6865520313510185
147.0,0.6874871731828704,0.6819983053248003,0.0030408687704466253,0.5627881249480998,0.004166393252436784,0.11200291835381701,7.022248007895381e-28,0.6789574365543537
147.2,0.6794700329678102,0.67398116510974,0.0028688883916779817,0.5562410575100174,0.004974520202137866,0.1098966990059068,1.3978797982761647e-27,0.6711122767180621
147.4,0.6709746086614261,0.665485740803356,0.0024375893127371873,0.5493141682096359,0.005908134665011818,0.10782584861597105,2.766130594558933e-27,0.6630481514906188
147.6,0.6620274183210929,0.6565385504630228,0.001740978620886291,0.5420273298066088,0.006980324152162004,0.10578991788336568,5.44129752772448e-27,0.6547975718421365
147.8,0.6530195577059189,0.6475306898478488,0.0011370099325656025,0.534400866686272,0.008204354999310822,0.10378845822970045,1.0640862447084532e-26,0.6463936799152832
148.0,0.6440005393003617,0.6385116714422916,0.000641737466142045,0.5264554704277283,0.009593441542923225,0.10182102200549807,2.0687748754500431e-26,0.6378699339761496
148.2,0.6351294561831028,0.6296405883250327,0.00038082813138284877,0.5182121165842122,0.011160480921139098,0.0998871626882986,3.9987940683390977e-26,0.6292597601936498
148.4,0.6266755963815599,0.6211867285234898,0.0005905542137261133,0.5096919830692237,0.012917756168120418,0.09798643507241953,7.684957481446236e-26,0.6205961743097637
148.6,0.6183214462470258,0.6128325783889557,0.0009212007106262909,0.50091637051544,0.014876611712328574,0.09611839545056078,1.468478572830157e-25,0.6119113776783294
148.8,0.6103264624325135,0.6048375945744434,0.0016012609781912435,0.4919066249456373,0.01704710686316917,0.09428260178744576,2.7901299817333856e-25,0.6032363335962522
149.0,0.6024592839952897,0.5969704161372196,0.002370084868452249,0.48268406306607214,0.01943765431698998,0.09247861388570518,5.271433941790613e-25,0.5946003312687673
149.2,0.5947520644682782,0.5892631966102081,0.0032326505353953428,0.4732699004629871,0.022054652067643944,0.09070599354418167,9.903696400652497e-25,0.5860305460748128
149.4,0.5869620070453537,0.5814731391872836,0.003921533224844231,0.4636851829528395,0.0249021183007425,0.0889643047088574,1.850319245987752e-24,0.5775516059624394
149.6,0.5789184280793239,0.5734295602212538,0.0042443854814568915,0.453950721306346,0.027981339816860986,0.08725311361659,3.437900213423184e-24,0.5691851747397969
149.8,0.5710890166660254,0.5656001488079553,0.004650585136587004,0.4440870295359817,0.03129054520354399,0.08557198893184263,6.352628410387169e-24,0.5609495636713683
150.0,0.5626972254979619,0.5572083576398917,0.004348974554181595,0.4341142669064079,0.034824614302703824,0.08392050187659839,1.1674638229590947e-23,0.5528593830857101
150.5,0.5423871499127845,0.5368982820547143,0.0035689021637229645,0.40883364600936334,0.04457707436492289,0.07991865951670515,5.220402635188549e-23,0.5333293798909914
151.0,0.5222331464963351,0.516744278638265,0.0019338187270424578,0.3832886459493933,0.0554289961252472,0.07609281783658199,2.257870717435203e-22,0.5148104599112225
151.5,0.5019907514909275,0.49650188363285747,-0.000676220202699418,0.35775239291547556,0.06698919369400903,0.0724365172260723,9.45087693006079e-22,0.4971781038355569
152.0,0.4822704006529413,0.47678153279487123,-0.0033668420495377993,0.3324727946963504,0.07873215369516234,0.06894342645289632,3.830558111104201e-21,0.48014837484440903
152.5,0.4639274667738228,0.4584385989157527,-0.004874155159659221,0.3076702952094698,0.09003510858220576,0.06560735028373635,1.5041925586997814e-20,0.46331275407541195
153.0,0.4465678607714438,0.4410789929133737,-0.005113142784429592,0.2835365491426912,0.10023335067188816,0.06242223588322391,5.725671707839799e-20,0.4461921356978033
153.5,0.42907958778966954,0.42359071993159947,-0.004712246513659257,0.26023394132083516,0.10868684703841834,0.05938217808600521,2.1137666061808304e-19,0.4283029664452587
154.0,0.4105170644461272,0.4050281965880571,-0.004197651106876643,0.23789585712726738,0.114848566934914,0.05648142363275235,7.572111654095679e-19,0.40922584769493375
154.5,0.39057543148382784,0.38508656362575777,-0.0035795190623257866,0.21662759823442873,0.11832410999704969,0.05371437445660518,2.633444174603648e-18,0.38866608268808356
155.0,0.36966915007380535,0.3641802822157353,-0.0023166144921775156,0.196507831589359,0.11891347501642885,0.051075590102125,8.895945610444567e-18,0.3664968967079128
155.5,0.3476325468904363,0.34214367903236625,-0.0006354418544608498,0.1775904584220714,0.11662887311032409,0.04855978935443155,2.9203229860828385e-17,0.3427791208868271
156.0,0.3242316352537563,0.31874276739568624,0.000987456430927569,0.159906793224517,0.11168666658841508,0.04616185115182649,9.320655901022802e-17,0.3177553109647587
156.5,0.29985670622305166,0.2943678383649816,0.002547205445125378,0.14346794934361212,0.10447586872534527,0.043876814850898546,2.8936180377199517e-16,0.2918206329198562
157.0,0.2757740992420419,0.2702852313839718,0.004808764624428752,0.12826733718602087,0.09550924966463517,0.041699879908886135,8.742058962380767e-16,0.26547646675954306
157.5,0.25133093171459164,0.24584206385652158,0.006567180314538956,0.1142831922179755,0.08536528628005126,0.039626405043953296,2.5713378173647033e-15,0.23927488354198262
