wavelength,absorbance,absorbance_bk,residual_3gauss,Gauss_1,Gauss_2,Gauss_3,Gauss_4,Gauss_fit
117.0,1.0664026695847195,1.0601834876782177,0.010416844799503,1.8823578169039633e-06,7.039921120489712e-55,1.0497647605208977,1.1981434288406917e-205,1.0497666428787147
117.5,1.0414577133502407,1.035238531443739,-0.006141500580089332,3.3418678143979205e-06,4.864428067742596e-53,1.0413766901560138,3.319538687049861e-201,1.0413800320238282
118.0,1.0378601593087116,1.0316409774022097,-5.1361057814114375e-05,5.828925607386483e-06,3.013302793321408e-51,1.0316865095344165,7.541396324698491e-197,1.0316923384600238
118.5,1.0298985892034163,1.0236794072969144,0.0029024402754522782,9.992346974041702e-06,1.6772703642986865e-49,1.020766974674488,1.4103726904165101e-192,1.0207769670214621
119.0,1.015492516846444,1.009273334939942,0.0005635707286608671,1.6841851920461324e-05,8.40797537382107e-48,1.0086929223593608,2.1796573929348863e-188,1.0087097642112812
119.5,0.9960971491159027,0.9898779672094008,-0.005690645605043287,2.7919988813038836e-05,3.8042027887713835e-46,0.9955406928256311,2.7940944893284514e-184,0.9955686128144441
120.0,0.9881965016202033,0.9819773197137014,0.0005441971450991234,4.554069184164853e-05,1.5568732309745143e-44,0.9813875818767607,2.981823272014123e-180,0.9814331225686023
120.5,0.97246377496483,0.9662445930583281,-0.00013984520545784473,7.311310870817551e-05,5.775265746933331e-43,0.9663113251550778,2.658668812267268e-176,0.966384438263786
121.0,0.9576620050687283,0.9514428231622264,0.0009376349623962943,0.00011557151107303194,1.9458548546937783e-41,0.9503896166887571,1.987498209826518e-172,0.9505051881998301
121.5,0.9404534552069586,0.9342342733004566,0.00035467679482503733,0.0001799332553205315,5.9667616325271166e-40,0.9336996632503111,1.2499539662116478e-168,0.9338795965056316
122.0,0.9216395714959997,0.9154203895894978,-0.0011733922282141096,0.0002760062926352414,1.668425023730399e-38,0.9163177755250766,6.635558994142595e-165,0.9165937818177119
122.5,0.9024730842698752,0.8962539023633732,-0.0024823592004762363,0.0004172649687906519,4.262308946981886e-37,0.8983189965950588,2.983158959598349e-161,0.8987362615638494
123.0,0.8857350240679476,0.8795158421614456,-0.0008828327738655828,0.0006219071383798411,9.967008677510033e-36,0.8797767677969314,1.1394056314446286e-157,0.8803986749353112
123.5,0.8624409271697421,0.8562217452632401,-0.00545498271530509,0.0009140963644790542,2.137269903033419e-34,0.8607626316140662,3.708860132575884e-154,0.8616767279785452
124.0,0.8420201763233529,0.835800994416851,-0.006870356287987045,0.0013253797937903624,4.210206898059558e-33,0.8413459709110477,1.0320241180852584e-150,0.842671350704838
124.5,0.8238686982305566,0.8176495163240547,-0.005840522297478223,0.0018962551071858046,7.632281651498963e-32,0.8215937835143471,2.4622071561056934e-147,0.8234900386215329
125.0,0.8011603286911435,0.7949411467846416,-0.009307183181287204,0.0026778390823342735,1.2754177484849119e-30,0.8015704908835944,5.0514302467592316e-144,0.8042483299659288
125.5,0.782858374355269,0.776639192448767,-0.008432153565045453,0.003733566611948706,1.9679823800186286e-29,0.7813377794018638,8.937193824506093e-141,0.7850713460138125
126.0,0.7649362479728494,0.7587170660663475,-0.00737823046932351,0.005140823897103219,2.8084581528406205e-28,0.7609544726385677,1.3674142131288331e-137,0.766095296535671
126.5,0.7471916601530002,0.7409724782464983,-0.006496349481106001,0.00699239492546913,3.7126516380391925e-27,0.7404764328021352,1.8142614014688667e-134,0.7474688277276043
127.0,0.7310016281594458,0.7247824462529439,-0.004571621906712342,0.009397578660948836,4.5535069165588134e-26,0.7199564894987074,2.0929729681004662e-131,0.7293540681596562
127.5,0.715424422453542,0.70920524054704,-0.0027219716331721155,0.012482818335456374,5.189366981857446e-25,0.6994443938447558,2.1048904477287701e-128,0.7119272121802122
128.0,0.7011630318865996,0.6949438499800976,-0.0004346226100767625,0.016391676647705713,5.503458853082983e-24,0.6789867959424687,1.8501683691204808e-125,0.6953784725901744
128.5,0.6881968017665689,0.681977619860067,0.002066382011232104,0.02128399413468582,5.439288624999613e-23,0.658627243714149,1.4249475072721497e-122,0.6799112378488349
129.0,0.6761520920402976,0.6699329101337956,0.0041926244683296865,0.027334084563207163,5.017087585345507e-22,0.6384062011022588,9.639602665562925e-120,0.665740285665466
129.5,0.6661074602576988,0.6598882783511969,0.006799342550367737,0.03472785212827302,4.32482994534717e-21,0.6183610836725562,5.7416435412898e-117,0.6530889358008292
130.0,0.6575641416863933,0.6513449597798914,0.009159889405026655,0.0436587606691172,3.488875703757802e-20,0.5985263097057475,3.0182294493526978e-114,0.6421850703748647
130.5,0.650224684822848,0.6440055029163461,0.010749494142213045,0.054322643848429976,2.6374211862737143e-19,0.578933364925703,1.4034850315218379e-111,0.633256008774133
131.0,0.6446124293503788,0.6383932474438768,0.011870953623013158,0.06691141473390325,1.870754694887439e-18,0.5596108790869604,5.786052802052419e-109,0.6265222938208637
131.5,0.6408636061314987,0.6346444242249968,0.012453901890397856,0.08160580960613949,1.2466688368374976e-17,0.5405847127284594,2.1195083989268915e-106,0.6221905223345989
132.0,0.6390777195560629,0.6328585376495609,0.012413106040282562,0.0985673791170497,7.814907381271512e-17,0.5218780524922285,6.91361345561505e-104,0.6204454316092783
132.5,0.640054537076398,0.6338353551698961,0.012393827268372681,0.1179300143986784,4.613865372326161e-16,0.5035115135028445,2.012388306713736e-101,0.6214415279015234
133.0,0.6424056117873683,0.6361864298808664,0.010891822149779018,0.13979136032677475,2.568578418177771e-15,0.48550324740431006,5.237881775190527e-99,0.6252946077310874
133.5,0.6476738620464285,0.6414546801399266,0.009381108338710864,0.16420451704736433,1.3499414168234927e-14,0.4678690547538379,1.2215709239395145e-96,0.6320735718012157
134.0,0.6552017886774154,0.6489826067709135,0.007189647184754899,0.19117045901061744,6.705446404821198e-14,0.45062250057547404,2.557787628103751e-94,0.6417929595861586
134.5,0.6648702944333703,0.6586511125268684,0.00424447622436952,0.22063160432279474,3.1514981628025985e-13,0.43377503197938894,4.8176922855005215e-92,0.6544066363024988
135.0,0.6783909271186249,0.672171745212123,0.0023687042573361516,0.25246694409955306,1.403002941523017e-12,0.4173360968538308,8.17845142501673e-90,0.6698030409547868
135.5,0.6938580023288998,0.6876388204223979,-0.0001635338248354712,0.2864890915058586,5.922672921059615e-12,0.40131326273545215,1.2536384582047528e-87,0.6878023542472333
136.0,0.7125619404251861,0.7063427585186841,-0.0018131117356996462,0.3224435351715899,2.3732866687386832e-11,0.38571233505906094,1.738353085685632e-85,0.7081558702543838
136.5,0.7335781212584825,0.7273589393519806,-0.0031888203309824448,0.360010285513244,9.036535501909627e-11,0.37053747407935367,2.1844759352812894e-83,0.730547759682963
137.0,0.7579832016896256,0.7517640197831237,-0.002835281095283637,0.3988079907067858,3.272726192012224e-10,0.3557913098443489,2.492088734945665e-81,0.7545993008784073
137.5,0.7844760750423218,0.7782568931358198,-0.001618641137939969,0.438400478462607,1.1284980776288147e-09,0.34147505468265477,2.5854414167626688e-79,0.7798755342737598
138.0,0.8115764993721484,0.8053573174656464,-0.000536856906143135,0.4783055579191198,3.7084630401425167e-09,0.3275886127442067,2.4433958605622708e-77,0.8058941743717896
138.2,0.8235327524354121,0.8173135705289102,0.0009193130393617688,0.49424012062065065,5.889953254232265e-09,0.3221541309789445,1.4689110244897678e-76,0.8163942574895484
138.4,0.8342201355895602,0.8280009536830583,0.0011050039808346845,0.5101078500919758,9.284907166423219e-09,0.3167880903253406,8.703133126194964e-76,0.8268959497022236
138.6,0.8451552041004828,0.8389360221939809,0.0015717013314521244,0.5258739763195568,1.4528364775789977e-08,0.31149033001460724,5.08252124586309e-75,0.8373643208625288
138.8,0.8559495517504867,0.8497303698439848,0.0019662676430033388,0.5415034164591966,2.2566009654258745e-08,0.3062606631757752,2.925841649914496e-74,0.8477641022009814
139.0,0.8659048377826963,0.8596856558761944,0.0016258252820180452,0.5569609179739727,3.4795002234957585e-08,0.3010988778252014,1.6604840736224375e-73,0.8580598305941763
139.2,0.8762708576420684,0.8700516757355664,0.0018356807808362907,0.5722112038524185,5.326329423871064e-08,0.29600473783901743,9.291263589845712e-73,0.8682159949547301
139.4,0.8855411288495194,0.8793219469430175,0.001124763088070524,0.5872191189973669,8.094928468703806e-08,0.29097798390829527,5.126424381766318e-72,0.8781971838549469
139.6,0.895186227606766,0.8889670457002641,0.0009988122040773817,0.6019497768686609,1.221508297034545e-07,0.28601833447669606,2.789312858677254e-71,0.8879682334961867
139.8,0.9042341140125592,0.8980149321060572,0.0005205569605798432,0.6163687054633649,1.8302171154572275e-07,0.281125486660401,1.4968064553640633e-70,0.8974943751454774
140.0,0.9133489455495594,0.9071297636430574,0.00038838246266115206,0.6304419917251125,2.723050892566478e-07,0.2762991171501945,7.922501260020483e-70,0.9067413811803963
140.2,0.9214036790063738,0.9151844970998718,-0.0004912118133315602,0.6441364234900698,4.0232760086187556e-07,0.27153888309553265,4.1364654852613214e-69,0.9156757089132034
140.4,0.9290022685504273,0.9227830866439254,-0.001481554761407211,0.6574196280997366,5.903350787152705e-07,0.26684442297051725,2.1306334666882264e-68,0.9242646414053326
140.6,0.9370059914573571,0.9307868095508551,-0.001689614983280463,0.6702602068407764,8.602716691041345e-07,0.2622153574216901,1.0827840169002951e-67,0.9324764245341356
140.8,0.9439857552209777,0.9377665733144758,-0.002513826320503787,0.6826278644085491,1.2451288521217932e-06,0.25765129009757837,5.429625223257256e-67,0.9402803996349796
141.0,0.9504272078544412,0.9442080259479393,-0.003439105165191858,0.6944935326334722,1.7900196721679804e-06,0.2531518084599868,2.686789502355186e-66,0.9476471311131311
141.2,0.9564579861098784,0.9502388042033765,-0.004309724297823059,0.7058294877577175,2.556166485009528e-06,0.24871648457699702,1.3121205209607717e-65,0.9545485285011995
141.4,0.9622797817846324,0.9560605998781304,-0.004897362650001513,0.7166094606028737,3.6260275433154755e-06,0.24434487589771492,6.324559936100655e-65,0.9609579625281319
141.6,0.9676408805586765,0.9614216986521745,-0.005428676212049122,0.7268087390271376,5.109828305317721e-06,0.24003652600878062,3.0091461734406626e-64,0.9668503748642236
141.8,0.9727517591043587,0.9665325771978568,-0.005669804113628052,0.736404262132203,7.153806586381904e-06,0.23579096537269548,1.4133581159502378e-63,0.9722023813114848
142.0,0.9768710959296678,0.9706519140231659,-0.0063404542950310505,0.7453747057449392,9.950525214731875e-06,0.23160771204804298,6.553848104133667e-63,0.9769923683181969
142.2,0.9815789700479779,0.975359788141476,-0.00584079466644849,0.753700558766489,1.3751649754309231e-05,0.22748627239168115,3.0006455800612174e-62,0.9812005828079244
142.4,0.9856889540312681,0.9794697721247662,-0.005339443298567503,0.7613641900507986,1.8883629516171777e-05,0.22342614174301884,1.3565813921883565e-61,0.9848092154233337
142.6,0.988435987105798,0.9822168051992961,-0.005585672190676738,0.7683499055453069,2.576675417681261e-05,0.21942680509048915,6.056590037169266e-61,0.9878024773899728
142.8,0.9915870146062072,0.9853678326997053,-0.00479883860022412,0.7746439954977821,3.493808179926686e-05,0.21548773772034815,2.6705438480361795e-60,0.9901666712999294
143.0,0.9939991098085048,0.9877799279020029,-0.004110328292575072,0.7802347716044871,4.707874213167765e-05,0.2116084058479591,1.1630495264873758e-59,0.9918902561945779
143.2,0.9954219776036681,0.9892027956971662,-0.0037611116863003335,0.7851125940454523,6.304610631356805e-05,0.2077882672317006,5.003352686658149e-59,0.9929639073834665
143.4,0.9968135052631326,0.9905943233566307,-0.0027862481095165537,0.7892698884218295,8.391127462601787e-05,0.20402677176969164,2.1263051897297146e-58,0.9933805714661472
143.6,0.9969255145669016,0.9907063326603996,-0.0024291843583522654,0.7927011526777792,0.00011100226147371551,0.20032336207949897,8.9274725780397e-58,0.9931355170187519
143.8,0.9969590448421731,0.9907398629356712,-0.0014865184249059915,0.7954029541543512,0.00014595314520822746,0.19667747406101768,3.703449936859184e-57,0.9922263813605772
144.0,0.9954385377635424,0.9892193558570405,-0.0014338578646266864,0.7973739169849838,0.00019075929393974283,0.1930885374427436,1.5180838450203039e-56,0.9906532137216671
144.2,0.9938453272639648,0.9876261453574628,-0.0007923696275813352,0.7986147001011356,0.0002478385722857326,0.18955597631162285,6.149394903928528e-56,0.9884185149850442
144.4,0.9909763149779277,0.9847571330714258,-0.0007701409016293015,0.7991279661716795,0.0003200981746578914,0.18607920962671762,2.4617961672754553e-55,0.9855272739730551
144.6,0.9879397208543298,0.9817205389478278,-0.00026646103668870325,0.7989183418507966,0.00041100641682053273,0.18265765171689946,9.740703920571466e-55,0.9819869999845166
144.8,0.9838614807807845,0.9776422988742826,-0.0001654520946823279,0.7979923697558261,0.0005246684503345348,0.17929071276280428,3.8096258492535205e-54,0.9778077509689649
145.0,0.9795344797117187,0.9733152978052168,0.00031314145461691645,0.7963584526386666,0.0006659044486351331,0.17597779926329818,1.4728650356211734e-53,0.9730021563505998
145.2,0.974451444032776,0.968232262126274,0.0006468290308093705,0.7940267902516517,0.0008403283571363388,0.17271831448667663,5.629461729347135e-53,0.9675854330954646
145.4,0.9692202902696208,0.9630011083631188,0.0014257151997013606,0.7910093094412453,0.0010544248153084544,0.16951165890686365,2.12729861960556e-52,0.9615753931634174
145.6,0.9630450955277808,0.9568259136212789,0.0018334736032321608,0.7873195880302786,0.0013156213629111073,0.16635723062485702,7.948438669462668e-52,0.9549924400180467
145.8,0.9565404908038692,0.9503213088973672,0.0024617574933043507,0.782972773071789,0.0016323525566043903,0.16325442577566943,2.936708427418966e-51,0.9478595514040629
146.0,0.9497064193276479,0.9434872374211459,0.003284992253095198,0.7779854940748224,0.0020141121721909796,0.1602026389210373,1.0729983514255443e-50,0.9402022451680507
146.2,0.9416746047824353,0.9354554228759333,0.003406898352518173,0.7723757718148523,0.0024714892804105775,0.15720126342815222,3.877303844129608e-50,0.9320485245234151
146.4,0.9337242654130845,0.9275050835065826,0.0040762846313656675,0.7661629233488781,0.0030161836916649336,0.15424969183467382,1.3857543469467862e-49,0.9234287988752169
146.6,0.9246578940239923,0.9184387121174904,0.004062935959514347,0.7593674638579915,0.0036609960996717423,0.15134731620031283,4.898928713381096e-49,0.914375776157976
146.8,0.9151474654048437,0.9089282834983418,0.004003960867073553,0.7520110059381986,0.004419788247849242,0.14849352844522032,1.7131958709801398e-48,0.9049243226312682
147.0,0.9054111769069207,0.8991919950004188,0.004080708745820338,0.7441161569541627,0.005307408624950492,0.14568772067548524,5.927018331981412e-48,0.8951112862545985
147.2,0.8949637195333667,0.8887445376268648,0.003769257477252208,0.7357064150600237,0.006339579593604759,0.14292928549598416,2.028714582656506e-47,0.8849752801496126
147.4,0.8842653781529228,0.8780461962464209,0.0034897729722501714,0.7268060644773279,0.0075327424859723295,0.14021761631087043,6.870571958465163e-47,0.8745564232741707
147.6,0.8727998092106652,0.8665806273041633,0.002684591014728843,0.7174400706022469,0.008903858075218747,0.13755210761196876,2.302415417285917e-46,0.8638960362894345
147.8,0.860597052546451,0.8543778706399491,0.0013415789414128465,0.7076339754931852,0.01047016095001368,0.13493215525533742,7.635274876633225e-46,0.8530362916985362
148.0,0.8493321376850902,0.8431129557785882,0.0010931371165585624,0.6974137942659536,0.012248867669793056,0.132357156726283,2.5058033141394783e-45,0.8420198186620297
148.2,0.8376242327154354,0.8314050508089335,0.0005157863828435527,0.6868059128969334,0.014256840136076223,0.12982651139308032,8.139195258052771e-45,0.8308892644260899
148.4,0.8267962516188729,0.820577069712371,0.0008902537158257395,0.6758369879058752,0.01651020734099114,0.12733962074967886,2.6167292021559804e-44,0.8196868159965452
148.6,0.8160125711746756,0.8097933892681737,0.0013397017650723653,0.6645338483590225,0.01902395049642293,0.12489588864765584,8.327398138407528e-44,0.8084536875031013
148.8,0.805510737638359,0.7992915557318571,0.00206197517183504,0.6529234006007815,0.021811458441567122,0.12249472151767353,2.62339260190241e-43,0.797229580560022
149.0,0.7954691426379985,0.7892499607314966,0.003197833963795693,0.6410325360885049,0.024884062098473925,0.12013552858072211,8.181833029761872e-43,0.7860521267677009
149.2,0.7854350563586222,0.7792158744521203,0.004259551220495816,0.6288880426700862,0.028250558512151417,0.1178177220493868,2.5263936542427475e-42,0.7749563232316244
149.4,0.7755189763472621,0.7692997944407601,0.005325820925286218,0.6165165196088602,0.0319167365871987,0.11554071731941498,7.724031164682509e-42,0.7639739735154739
149.6,0.7651619118637808,0.7589427299572788,0.0058095822509236505,0.6039442966245301,0.03588491792999312,0.11330393315183197,2.3383465567259157e-41,0.7531331477063552
149.8,0.7544868355200781,0.7482676536135762,0.005809977443267056,0.5911973571830949,0.04015352714135903,0.11110679184585524,7.010107154389179e-41,0.7424576761703091
150.0,0.7439413801750944,0.7377221982685924,0.005755506227015261,0.5783012662333075,0.04471670640540314,0.10894871940286652,2.0812305670376327e-40,0.7319666920415772
150.5,0.7175695570979777,0.7113503751914757,0.00472522196408931,0.5455717148140458,0.057332705505409094,0.10372073290793145,3.030629141448279e-39,0.7066251532273864
151.0,0.6913015369655003,0.6850823550589984,0.0025050015380411184,0.5124408924168997,0.07141188290890649,0.09872457819515106,4.158996697078738e-38,0.6825773535209573
151.5,0.6651402720795587,0.6589210901730568,-0.0007484388718100865,0.47925788896347093,0.08646001188382324,0.09395162819757273,5.3841941544773915e-37,0.6596695290448669
152.0,0.63948180843078,0.633262626524278,-0.004277920603505292,0.44634108469976297,0.10180602635843425,0.08939343606958601,6.581946438616904e-36,0.6375405471277833
152.5,0.6155718295839675,0.6093526476774656,-0.006312253448314431,0.4139752108736329,0.11664794567774717,0.08504174457439982,7.60513176495525e-35,0.61566490112578
153.0,0.5929315657214572,0.5867123838149553,-0.006708510742633678,0.38240953132099353,0.13012286935667605,0.08088849387991941,8.313568540618881e-34,0.593420894557589
153.5,0.5702691455446453,0.5640499636381433,-0.006125368491236349,0.35185705966741543,0.14139244457210293,0.07692582788986124,8.605945542345748e-33,0.5701753321293797
154.0,0.5459997511547138,0.5397805692482118,-0.0055918812550357355,0.32249470426196125,0.14973164701031544,0.07314609923097093,8.443737664524139e-32,0.5453724505032476
154.5,0.5201371325433432,0.5139179506368412,-0.004695582643967855,0.29446421758471103,0.15460744268492924,0.06954187301116876,7.859290170784093e-31,0.5186135332808091
155.0,0.49254987183162224,0.48633068992512035,-0.003384344220382529,0.2678738182537092,0.15573528643439027,0.06610592945740337,6.945839117278566e-30,0.4897150341455029
155.5,0.46362466046375855,0.45740547855725666,-0.0013313180940634495,0.242800351208368,0.15310517990698122,0.0628312655359709,5.833542190860583e-29,0.4587367966513201
156.0,0.4332931669172295,0.42707398501072763,0.0010967323100150583,0.21929185431043424,0.14697430273816775,0.05971109565211056,4.659859598210285e-28,0.42597725270071257
156.5,0.4014141528711007,0.3951949709645988,0.0032568531553658353,0.19737040653457757,0.13782885975481404,0.05673885151984135,3.5432857494540696e-27,0.391938117809233
157.0,0.3695653728406844,0.3633461909341825,0.006080305561168509,0.17703514314407323,0.12632256094164224,0.053908181287298525,2.5667635660149957e-26,0.357265885373014
157.5,0.3374863867250861,0.3312672048185842,0.00858675270378928,0.15826533581225122,0.11320216830527255,0.051212947997271156,1.772796998183022e-25,0.3226804521147949
