wavelength,absorbance,absorbance_bk,residual_3gauss,Gauss_1,Gauss_2,Gauss_3,Gauss_4,Gauss_fit
117.0,0.5234162794313558,0.5239596517760602,0.0006604021647120817,7.32904687852188e-07,1.869192840836931e-54,0.5232985167066603,2.63993112437092e-143,0.5232992496113481
117.5,0.5180177195715209,0.5185610919162252,-0.0010358863295354404,1.31536519207612e-06,1.2130739841940845e-52,0.5195956628805686,3.1865684594578373e-140,0.5195969782457607
118.0,0.5112864785243145,0.5118298508690189,-0.003403694621336717,2.318588829142258e-06,7.070000146687015e-51,0.5152312269015265,3.350900661535779e-137,0.5152335454903556
118.5,0.5079592802196868,0.5085026525643912,-0.0017412991114439391,4.015597201860169e-06,3.708828382365496e-49,0.5102399360786333,3.078161257852737e-134,0.5102439516758351
119.0,0.5039399561013749,0.5044833284460792,-0.00018122151622324,6.835841072588967e-06,1.7551016463556475e-47,0.5046577141212298,2.476677997711646e-131,0.5046645499623025
119.5,0.4985652481156973,0.4991086204604016,0.0005757844228869713,1.144225524895548e-05,7.508557407716241e-46,0.4985213937822657,1.7499539825986803e-128,0.49853283603751464
120.0,0.4928707103519313,0.4934140826966356,0.0015268005888171565,1.8839430548340578e-05,2.9101672463362824e-44,0.4918684426772701,1.0885980189997289e-125,0.49188728210781846
120.5,0.48562577473798474,0.48616914708268905,0.0014019211426820055,3.052215832285672e-05,1.0239617689394145e-42,0.4847367037816842,5.976848658893735e-123,0.48476722594000704
121.0,0.4792601826578792,0.4798035550025835,0.0025907282758309003,4.867492182669734e-05,3.277405803171241e-41,0.4771641518049259,2.903330475684357e-120,0.4772128267267526
121.5,0.4699232626637572,0.47046663500846153,0.0012015348455703956,7.643381138349654e-05,9.56122312886163e-40,0.46918866635150763,1.250754877648512e-117,0.46926510016289114
122.0,0.46142870381574275,0.46197207616044705,0.001006031125307505,0.00011822252498831559,2.5472396135479536e-38,0.4608478225101512,4.789701318972511e-115,0.46096604503513955
122.5,0.4533244680533113,0.4538678403980156,0.0015089678998650435,0.00018017323518241952,6.2089249024738085e-37,0.4521786992629681,1.6341490874288528e-112,0.45235887249815054
123.0,0.4419716932556266,0.4425150656003309,-0.0009732810708616979,0.00027064079168559533,1.3872403778365722e-35,0.443217705879507,4.9783632536593614e-110,0.4434883466711926
123.5,0.4329067344564244,0.4334501068011287,-0.0009511341006526175,0.00040081464618691766,2.8461381400940937e-34,0.43400042625559443,1.3571769730284075e-107,0.43440124090178134
124.0,0.422612328873861,0.4231557012185653,-0.0019912065231812437,0.0005854267671189262,5.3714515300247084e-33,0.42456148097462765,3.3179049082715594e-105,0.42514690774174657
124.5,0.4131666469212828,0.4137100192659871,-0.0020679329763690357,0.0008435455332495255,9.341228375227232e-32,0.41493440670910664,7.289055472516286e-103,0.41577795224235614
125.0,0.40244517552629094,0.40298854787099525,-0.003362439803554107,0.0011994352321422089,1.499413223146141e-30,0.40515155244240714,1.4419195462427446e-100,0.40635098767454936
125.5,0.39248105464137,0.3930244269860743,-0.0039030135643465247,0.0016834486762845595,2.2251314580184747e-29,0.3952439918741363,2.573573693475071e-98,0.39692744055042084
126.0,0.38383899373095937,0.3843823660756637,-0.0031919924138252287,0.002332907213428821,3.0577571574981493e-28,0.3852414512760601,4.152432661114498e-96,0.3875743584894889
126.5,0.37394226395782737,0.3744856363025317,-0.003879524665403533,0.003192908979625519,3.897119342660878e-27,0.37517225198830967,6.068275973010392e-94,0.3783651609679352
127.0,0.3664061443424389,0.3669495166871432,-0.0024307438307173412,0.004316993831803188,4.6136330915988e-26,0.3650632666860574,8.046986758399707e-92,0.36938026051786055
127.5,0.3574558287321945,0.3579992010768988,-0.0027082708456920845,0.005767583418808563,5.081026724040846e-25,0.35493988850378233,9.700577997613825e-90,0.3607074719225909
128.0,0.3504038144283933,0.3509471867730976,-0.0014949341253661097,0.00761610882239328,5.213207446308124e-24,0.34482601207607044,1.0649579864876705e-87,0.3524421208984637
128.5,0.34382963010734435,0.34437300245204866,-0.00031376068118843525,0.009942737593953237,4.990287930997883e-23,0.33474402553928384,1.0665851216296164e-85,0.3446867631332371
129.0,0.3379620721625205,0.3385054445072248,0.0009550138857674639,0.01283561808571608,4.462945003654041e-22,0.32471481253574125,9.761763331151782e-84,0.33755043062145734
129.5,0.3326951105637683,0.33323848290847263,0.0020911470450150627,0.016389572593428593,3.734115107058512e-21,0.31475776327002897,8.178177450656476e-82,0.33114733586345757
130.0,0.3281271726220717,0.328670544966776,0.0030755589752372026,0.02070419230739971,2.926887141543997e-20,0.30489079368413907,6.2818959736798565e-80,0.3255949859915388
130.5,0.3246763973954686,0.3252197697401729,0.00420808184682675,0.025881316050280413,2.1520161701630342e-19,0.29513037184306573,4.431251398220139e-78,0.32101168789334616
131.0,0.3220434715004695,0.32258684384517383,0.005073383031470924,0.03202191015970272,1.4861516929033022e-18,0.28549155065400017,2.8750430667830327e-76,0.3175134608137029
131.5,0.3195827363780575,0.3201261087227618,0.004915695835151557,0.03922240680850079,9.651693039519192e-18,0.27598800607910945,1.7183485460987253e-74,0.31521041288761026
132.0,0.3190116820760905,0.3195550544207948,0.005352374332501575,0.04757060004524056,5.902004258720067e-17,0.2666320800430526,9.475013120186897e-73,0.3142026800882932
132.5,0.3196631704786701,0.3202065428233744,0.0056304756522330135,0.05714123989037153,3.4022999577337345e-16,0.25743482728076955,4.8271319983582504e-71,0.3145760671711414
133.0,0.3207578144627502,0.3213011868074545,0.004903619707193607,0.06799150168242095,1.851113015066883e-15,0.24840606541783808,2.275439082435249e-69,0.3163975671002609
133.5,0.323210145910339,0.3237535182550433,0.00404255333800152,0.08015653729305838,9.51655510596084e-15,0.2395544276239739,9.938501088817054e-68,0.31971096491704176
134.0,0.32731741975693407,0.3278607921016384,0.0033280409804940514,0.09364533389179651,4.628088576252851e-14,0.23088741722930156,4.027694590850399e-66,0.3245327511211443
134.5,0.33218394347191305,0.33272731581661735,0.0018787397597460065,0.10843711231440845,2.131457929710151e-13,0.22241146374224977,1.516561892969114e-64,0.33084857605687135
135.0,0.33881042577753606,0.33935379812224037,0.0007433290683180882,0.12447848929628702,9.306214309347638e-13,0.21413197975670464,5.31260680974191e-63,0.3386104690539223
135.5,0.34680854781191983,0.34735192015662414,-0.00038310355246701233,0.14168160542124417,3.856102456639143e-12,0.2060534182839909,1.7336576777410446e-61,0.34773502370909115
136.0,0.3563392250240384,0.3568825973687427,-0.0012201170082777324,0.15992338426998987,1.5179297452885855e-11,0.19817933009185126,5.276912443074116e-60,0.35810271437702046
136.5,0.3673844576148837,0.367927829959588,-0.001630630468219374,0.1790460396933905,5.682262267754922e-11,0.19051242067759422,1.5000261108936896e-58,0.3695584604278074
137.0,0.38000326585186606,0.38054663819657036,-0.0013668586838901375,0.19885889013228517,2.024822921022549e-10,0.18305460654569303,3.9870410942268836e-57,0.3819134968804605
137.5,0.3934234491121804,0.3939668214568847,-0.0009817247191346024,0.21914147498741196,6.874951723843182e-10,0.1758070705011122,9.920999911114781e-56,0.3949485461760193
138.0,0.4077579546509578,0.40830132699566213,-0.00011689318229879397,0.2396479022432793,2.2262859739695693e-09,0.16877031570839568,2.3137820717739605e-54,0.4084182201779609
138.2,0.41403531100145086,0.41457868334615516,0.0007099318580342517,0.24785412328328582,3.5158968048209203e-09,0.1660146246889383,8.010559566647256e-54,0.4138687514881209
138.4,0.4197300846147524,0.4202734569594567,0.0009447873141650298,0.2560360532375964,5.511755292297501e-09,0.16329261089594002,2.745444752011868e-53,0.4193286696452917
138.6,0.4252651614968681,0.4258085338415724,0.0010286073553123498,0.26417569221454457,8.577635607158271e-09,0.16060422569407992,9.315437633591452e-53,0.42477992648626006
138.8,0.43085461699116656,0.43139798933587087,0.0011937370875374498,0.27225483227636554,1.32523873635148e-08,0.15794940671958052,3.129431958356431e-52,0.4302042522483334
139.0,0.4363350861075003,0.43687845845220463,0.0012952275496002086,0.2802551321998947,2.0327984143713585e-08,0.1553280783747256,1.040950815505233e-51,0.4355832309026044
139.2,0.44145963244260567,0.44200300478730997,0.0011046278797930964,0.28815819363359835,3.095941595838289e-08,0.15274015231450255,3.428687110555632e-51,0.4408983769075169
139.4,0.4466375076860762,0.4471808800307805,0.0010496671191170814,0.2959456381683274,4.681810663660815e-08,0.15018552792522938,1.1183782379089162e-50,0.4461312129116634
139.6,0.45144812984271415,0.45199150218741846,0.0007281542554200549,0.30359918483269854,7.030427905528805e-08,0.14766409279502077,3.612790567034386e-50,0.4512633479319984
139.8,0.45633704698680577,0.4568804193315101,0.0006038637954543513,0.3111007275216676,1.048384231022421e-07,0.14517572317596497,1.1558989497097828e-49,0.45627655553605573
140.0,0.46111669766240393,0.46166007000710824,0.0005072184425832238,0.31843241186867427,1.5525793058103666e-07,0.1427202844379202,3.6631060971722795e-49,0.461152851564525
140.2,0.46552413112614816,0.46606750347085246,0.00019293252693458607,0.3255767110778533,2.2835224480326391e-07,0.1402976315138198,1.1499023947788629e-48,0.4658745709439179
140.4,0.4696482561196103,0.4701916284643146,-0.00023281469359937024,0.33251650024276597,3.3357872734741023e-07,0.13790760933642068,3.57588369806292e-48,0.470424443157914
140.6,0.4735619500358099,0.4741053223805142,-0.000680343590052479,0.33923512869208516,4.840120537328177e-07,0.1355500532664278,1.1016548776584748e-47,0.4747856659705667
140.8,0.47736788655238904,0.47791125889709335,-0.0010307181276147381,0.34571648992030996,6.975924647908842e-07,0.13322478951193337,3.3626070718380086e-47,0.4789419770247081
141.0,0.480728024152568,0.4812713964972723,-0.0016063264772126495,0.35194508868262137,9.987527167170467e-07,0.13093163553914686,1.0169590245422549e-46,0.48287772297448495
141.2,0.48399472452915215,0.48453809687385646,-0.002039828978008862,0.35790610485739405,1.4205201006161134e-06,0.12867040047437064,3.0475842705384615e-46,0.4865779258518653
141.4,0.48735505215406766,0.48789842449877197,-0.002129921913820887,0.3635854537070405,2.007208332962474e-06,0.1264408854972194,9.050256119922984e-46,0.49002834641259285
141.6,0.4901222175648125,0.4906655899095168,-0.0025499543475452358,0.36896984219780893,2.8178341848342278e-06,0.12424288422506831,2.663462674620984e-45,0.49321554425706204
141.8,0.4929523251360255,0.4934956974807298,-0.002631237094253003,0.37404682107129467,3.930414953039352e-06,0.12207618308873511,7.768558882698494e-45,0.4961269345749828
142.0,0.495341370633942,0.4958847429786463,-0.002866098439890108,0.3788048323945526,5.447324570433279e-06,0.11994056169941343,2.2457928601708908e-44,0.49875084141853643
142.2,0.4976838263556406,0.49822719870034493,-0.002849348765286863,0.3832332523514434,7.5019073122317274e-06,0.11783579320687619,6.435190263200855e-44,0.5010765474656318
142.4,0.49995851990651646,0.5005018922512208,-0.002592448039924422,0.3873224290747932,1.0266567367750652e-05,0.11576164464898431,1.8278578004731865e-43,0.5030943402911452
142.6,0.5017309525332414,0.5022743248779458,-0.0025212303397520452,0.391063715356801,1.3962568357725583e-05,0.11371787729253909,5.146824856516506e-43,0.5047955552176978
142.8,0.5034103987689091,0.5039537711136135,-0.0022188437525691995,0.3944494961134801,1.887178717995073e-05,0.11170424696552256,1.436741981009122e-42,0.5061726148661827
143.0,0.5046295999946503,0.5051729723393547,-0.0020460932278545396,0.397473210517404,2.5350669016428942e-05,0.10972050438078881,3.976370254473728e-42,0.5072190655672092
143.2,0.5056518929552881,0.5061952652999925,-0.0017343455249272388,0.4001293687513695,3.3846622292839465e-05,0.10776639545125738,1.091162725157911e-41,0.5079296108249197
143.4,0.5064285949420562,0.5069719672867605,-0.0013281747542401856,0.40241356337333023,4.491707098210034e-05,0.10584166159668838,2.969017268110194e-41,0.5083001420410007
143.6,0.5066277389068953,0.5071711112515996,-0.00115665545433008,0.40432247531991117,5.9251343912914266e-05,0.10394604004210566,8.010913561093572e-41,0.5083277667059297
143.8,0.5067844188219198,0.5073277911666242,-0.0006830430766433526,0.4058538746115744,7.76955237453372e-05,0.10207926410794785,2.143497162140188e-40,0.5080108342432675
144.0,0.5062508346885881,0.5067942070332925,-0.0005547526148909077,0.4070066158568387,0.0001012802993032881,0.10024106349204141,5.6880126295239476e-40,0.5073489596481834
144.2,0.5056314457193076,0.506174818064012,-0.00016822692685714014,0.40778062868563264,0.00013125176176320054,0.0984311645434733,1.496993773808984e-39,0.5063430449908691
144.4,0.5044136965144135,0.5049570688591178,-3.822989818202949e-05,0.4081769032725686,0.00016910495626166805,0.09664929052846966,3.907743737082648e-39,0.5049952987572999
144.6,0.502607331138783,0.5031507034834873,-0.00015854938971615606,0.4081974711395555,0.00021661984527693255,0.09489516188837105,1.011820423221542e-38,0.5033092528732035
144.8,0.5007888446721308,0.5013322170168352,4.2439914139547064e-05,0.4078453814534672,0.0002758991594180058,0.09316849648981039,2.5988220568796175e-38,0.5012897771026956
145.0,0.4987123294264766,0.4992557017711809,0.0003126114381796774,0.40712467305845773,0.0003494074073396351,0.09146900986720388,6.621702252547754e-38,0.4989430903330012
145.2,0.49598859006526885,0.49653196240997316,0.00025519435499749,0.4060403425038117,0.00044001009350890316,0.08979641545765503,1.673812596461687e-37,0.49627676805497567
145.4,0.4931806201881568,0.4937239925328611,0.0004242474010233699,0.4045983083468713,0.0005510119565723029,0.08815042482839407,4.197705680216552e-37,0.4932997451318377
145.6,0.4901123059152712,0.4906556782599755,0.0006333655363155999,0.4028053720265171,0.0006861928002789592,0.08653074789686385,1.0445008918532205e-36,0.4900223127236599
145.8,0.4868484829676407,0.487391855312345,0.0009357472993818949,0.4006691756158671,0.0008498392535283043,0.08493709314356765,2.57881891453034e-36,0.48645610801296313
146.0,0.48347406653893155,0.48401743888363585,0.0014033437142621508,0.3981981567733084,0.0010467705782611822,0.08336916781780411,6.317880746000898e-36,0.4826140951693737
146.2,0.47939759891540495,0.47994097126010926,0.0014304354476712966,0.395401501218678,0.0012823564573522911,0.08182667813640766,1.5359734580060887e-35,0.47851053581243796
146.4,0.4753150830372593,0.4758584553819636,0.0016975082856168777,0.3922890930664348,0.0015625245542970282,0.08030932947561494,3.705789057690973e-35,0.4741609470963467
146.6,0.4707959416110015,0.47133931395570583,0.0017572684916390413,0.38887146335009803,0.0018937555577763778,0.07881682655619239,8.873300416988202e-35,0.4695820454640668
146.8,0.4660218384656773,0.4665652108103816,0.0017735366939874986,0.38515973707206497,0.0022830634223938665,0.07734887362193528,2.1087243806865037e-34,0.4647916741163941
147.0,0.4609890749316795,0.4615324472763838,0.001723734948091249,0.381165579110446,0.0027379586061646337,0.07590517461168186,4.974014641627228e-34,0.45980871232829257
147.2,0.4559118835546279,0.4564552558993322,0.0018022909668707343,0.37690113930966407,0.0032663922978414016,0.074485433324956,1.1645796497603254e-33,0.4546529649324615
147.4,0.4501844449346781,0.4507278172793824,0.0013827866914374876,0.3723789970746348,0.003876679931933551,0.0730893535813766,2.7066266465657252e-33,0.4493450305879449
147.6,0.4441658708737681,0.4447092432184724,0.0008030953538142871,0.36761210577933207,0.0045774027113668495,0.07171663937395918,6.244626688991988e-33,0.4439061478646581
147.8,0.4383142578766847,0.438857630221389,0.0004996115179985439,0.3626137372897171,0.005377286397238958,0.07036699501643445,1.4302941611016477e-32,0.4383580187033905
148.0,0.4322741084686876,0.4328174808133919,9.487136363095505e-05,0.3573974268885643,0.006285057276474937,0.06904012528472173,3.2524200348691036e-32,0.43272260944976093
148.2,0.42636327711747174,0.42690664946217605,-0.00011528093582796606,0.351976918875683,0.007309275969644638,0.06773573555267638,7.342969467650836e-32,0.427021930398004
148.4,0.42081702213468336,0.42136039447938767,8.259888075701216e-05,0.34636611310182214,0.00845815057455992,0.0664535319222486,1.646045905999947e-31,0.42127779559863066
148.6,0.41519386461989743,0.41573723696460174,0.00022567140625534554,0.3405790126780978,0.009739331532071264,0.06519322134817736,3.6638562068991763e-31,0.4155115655583464
148.8,0.4098262393097449,0.4103696116544492,0.0006257352932695359,0.33462967308545183,0.011159691518382803,0.06395451175734501,8.098081211052902e-31,0.40974387636117965
149.0,0.404733324818664,0.4052766971633683,0.0012823375319320207,0.32853215289061016,0.012725094577898211,0.06273711216292788,1.777435609526339e-30,0.40399435963143626
149.2,0.3993888328036471,0.3999322051483514,0.0016508465455124521,0.3223004662562671,0.01444015957311166,0.061540732773460165,3.874309606522539e-30,0.398281358602839
149.4,0.3944029845150549,0.3949463568597592,0.002324710546457498,0.31594853741423357,0.016308023802124965,0.06036508509694318,8.386948339282122e-30,0.3926216463133017
149.6,0.3889359083550209,0.3894792806997252,0.0024491281300499934,0.30949015725095325,0.018330113278598778,0.059209882040123146,1.80319691469585e-29,0.3870301525696752
149.8,0.3838041379041151,0.3843475102488194,0.0028278034667350016,0.3029389421354234,0.020505926643602908,0.05807483800305814,3.850632559457229e-29,0.3815197067820844
150.0,0.37828038490326255,0.37882375724796685,0.0027229532304194892,0.29630829510031137,0.02283283994813447,0.05695966896910152,8.167530738835369e-29,0.37610080401754736
150.5,0.36505411498355633,0.36559748732826064,0.0025979029752989935,0.27946977595110445,0.029272957461076846,0.054256850940780386,5.197541357029802e-28,0.36299958435296165
151.0,0.35172464893287486,0.35226802127757917,0.001706887768984089,0.26241338392941665,0.03647562007060867,0.05167212950856973,3.174109128448223e-27,0.3505611335085951
151.5,0.33812984429713094,0.33867321664183525,-4.872495243546382e-05,0.24532241172322902,0.04419831204290025,0.049201217828141484,1.8615019430968484e-26,0.3387219415942707
152.0,0.3251409934083406,0.3256843657530449,-0.0016281114758037174,0.22836407810637935,0.05210848836443747,0.0468399107580318,1.0491034180912178e-25,0.3273124772288486
152.5,0.3130764718711273,0.3136198442158316,-0.002457442193538384,0.21168793439128025,0.05980526178768188,0.04458409023040787,5.685599171071565e-25,0.31607728640937
153.0,0.30145434460171755,0.30199771694642186,-0.002710108271935796,0.19542487213531204,0.06685322328811137,0.04242972979493425,2.964980988491422e-24,0.30470782521835765
153.5,0.2894001881426253,0.2899435604873296,-0.0029404235353251984,0.1796866870097515,0.072824398613916,0.040372898398987306,1.4887942786018268e-23,0.2928839840226548
154.0,0.27714866499795926,0.27769203734266357,-0.002626398765181448,0.1645661412548959,0.07734253138825527,0.03840976346469384,7.202591937296542e-23,0.280318436107845
154.5,0.26369884497888807,0.2642422173235924,-0.00255497128183374,0.1501374586094481,0.08012313667554045,0.03653659332043759,3.359336316302736e-22,0.2667971886054261
155.0,0.24983737671995984,0.2503807490646642,-0.0018294863739902745,0.13645718077560443,0.08100329562143,0.03474975904162002,1.5114473017644334e-21,0.25221023543865445
155.5,0.23507076174787583,0.23561413409258014,-0.0009537765398324738,0.12356531298865091,0.0799568618911716,0.033045735752590115,6.5639741730858576e-21,0.23656791063241261
156.0,0.21970654661792496,0.22024991896262927,0.0002488827395744908,0.11148668763441585,0.07709324514983364,0.031421103438805276,2.7531495916668366e-20,0.22000103622305478
156.5,0.20339995229897473,0.20394332464367904,0.0011976249226122726,0.10023247858031381,0.07264067382528985,0.02987254731546309,1.115917248196517e-19,0.20274569972106676
