wavelength,absorbance,absorbance_bk,residual_3gauss
117.0,0.5234162794313558,0.5239596517760602,0.0006604022655078978
117.5,0.5180177195715209,0.5185610919162252,-0.001035886244792783
118.0,0.5112864785243145,0.5118298508690189,-0.0034036945523746587
118.5,0.5079592802196868,0.5085026525643912,-0.0017412990579259713
119.0,0.5039399561013749,0.5044833284460792,-0.00018122147775023745
119.5,0.4985652481156973,0.4991086204604016,0.0005757844467759177
120.0,0.4928707103519313,0.4934140826966356,0.001526800598646516
120.5,0.48562577473798474,0.48616914708268905,0.0014019211390423614
121.0,0.4792601826578792,0.4798035550025835,0.002590728259384112
121.5,0.4699232626637572,0.47046663500846153,0.0012015348170569817
122.0,0.46142870381574275,0.46197207616044705,0.0010060310855567467
122.5,0.4533244680533113,0.4538678403980156,0.0015089678498071413
123.0,0.4419716932556266,0.4425150656003309,-0.0009732811301811917
123.5,0.4329067344564244,0.4334501068011287,-0.0009511341680572549
124.0,0.422612328873861,0.4231557012185653,-0.001991206597347528
124.5,0.4131666469212828,0.4137100192659871,-0.0020679330558123765
125.0,0.40244517552629094,0.40298854787099525,-0.0033624398866168304
125.5,0.39248105464137,0.3930244269860743,-0.0039030136491924883
126.0,0.38383899373095937,0.3843823660756637,-0.0031919924984414316
126.5,0.37394226395782737,0.3744856363025317,-0.003879524747612939
127.0,0.3664061443424389,0.3669495166871432,-0.002430743908204469
127.5,0.3574558287321945,0.3579992010768988,-0.00270827091604281
128.0,0.3504038144283933,0.3509471867730976,-0.0014949341861243415
128.5,0.34382963010734435,0.34437300245204866,-0.00031376072992872484
129.0,0.3379620721625205,0.3385054445072248,0.0009550138513523265
129.5,0.3326951105637683,0.33323848290847263,0.0020911470270133514
130.0,0.3281271726220717,0.328670544966776,0.0030755589754093426
130.5,0.3246763973954686,0.3252197697401729,0.0042080818664926856
131.0,0.3220434715004695,0.32258684384517383,0.005073383071401427
131.5,0.3195827363780575,0.3201261087227618,0.004915695895470251
132.0,0.3190116820760905,0.3195550544207948,0.005352374412606109
132.5,0.3196631704786701,0.3202065428233744,0.005630475750743491
133.0,0.3207578144627502,0.3213011868074545,0.004903619821935101
133.5,0.323210145910339,0.3237535182550433,0.00404255346602489
134.0,0.32731741975693407,0.3278607921016384,0.003328041118141778
134.5,0.33218394347191305,0.33272731581661735,0.0018787399027602736
135.0,0.33881042577753606,0.33935379812224037,0.0007433292119925494
135.5,0.34680854781191983,0.34735192015662414,-0.00038310341309927276
136.0,0.3563392250240384,0.3568825973687427,-0.0012201168782253191
136.5,0.3673844576148837,0.367927829959588,-0.0016306303522945487
137.0,0.38000326585186606,0.38054663819657036,-0.0013668585864624605
137.5,0.3934234491121804,0.3939668214568847,-0.0009817246438897365
138.0,0.4077579546509578,0.40830132699566213,-0.00011689313201612705
138.2,0.41403531100145086,0.41457868334615516,0.0007099318977941693
138.4,0.4197300846147524,0.4202734569594567,0.0009447873432089082
138.6,0.4252651614968681,0.4258085338415724,0.001028607373527668
138.8,0.43085461699116656,0.43139798933587087,0.0011937370948952863
139.0,0.4363350861075003,0.43687845845220463,0.001295227546157407
139.2,0.44145963244260567,0.44200300478730997,0.0011046278656937636
139.4,0.4466375076860762,0.4471808800307805,0.0010496670945931985
139.6,0.45144812984271415,0.45199150218741846,0.0007281542207923097
139.8,0.45633704698680577,0.4568804193315101,0.0006038637511309175
140.0,0.46111669766240393,0.46166007000710824,0.0005072183890593718
140.2,0.46552413112614816,0.46606750347085246,0.00019293246479024084
140.4,0.4696482561196103,0.4701916284643146,-0.00023281476370218268
140.6,0.4735619500358099,0.4741053223805142,-0.0006803436673725183
140.8,0.47736788655238904,0.47791125889709335,-0.0010307182113362123
141.0,0.480728024152568,0.4812713964972723,-0.0016063265664497117
141.2,0.48399472452915215,0.48453809687385646,-0.002039829071811383
141.4,0.48735505215406766,0.48789842449877197,-0.002129922011180896
141.6,0.4901222175648125,0.4906655899095168,-0.0025499544474039126
141.8,0.4929523251360255,0.4934956974807298,-0.0026312371955090064
142.0,0.495341370633942,0.4958847429786463,-0.0028660985414079576
142.2,0.4976838263556406,0.49822719870034493,-0.002849348865907153
142.4,0.49995851990651646,0.5005018922512208,-0.002592448138474035
142.6,0.5017309525332414,0.5022743248779458,-0.002521230435055477
142.8,0.5034103987689091,0.5039537711136135,-0.002218843843461271
143.0,0.5046295999946503,0.5051729723393547,-0.0020460933131931647
143.2,0.5056518929552881,0.5061952652999925,-0.0017343456036073013
143.4,0.5064285949420562,0.5069719672867605,-0.001328174825208528
143.6,0.5066277389068953,0.5071711112515996,-0.001156655516600713
143.8,0.5067844188219198,0.5073277911666242,-0.0006830431293132211
144.0,0.5062508346885881,0.5067942070332925,-0.0005547526571565431
144.2,0.5056314457193076,0.506174818064012,-0.0001682269580308704
144.4,0.5044136965144135,0.5049570688591178,-3.8229917708632044e-05
144.6,0.502607331138783,0.5031507034834873,-0.0001585493971884011
144.8,0.5007888446721308,0.5013322170168352,4.243991896524246e-05
145.0,0.4987123294264766,0.4992557017711809,0.000312611455369427
145.2,0.49598859006526885,0.49653196240997316,0.0002551943844282256
145.4,0.4931806201881568,0.4937239925328611,0.0004242474423724052
145.6,0.4901123059152712,0.4906556782599755,0.0006333655890535805
145.8,0.4868484829676407,0.487391855312345,0.0009357473627696344
146.0,0.48347406653893155,0.48401743888363585,0.001403343787350353
146.2,0.47939759891540495,0.47994097126010926,0.0014304355293057736
146.4,0.4753150830372593,0.4758584553819636,0.0016975083744482644
146.6,0.4707959416110015,0.47133931395570583,0.0017572685861383386
146.8,0.4660218384656773,0.4665652108103816,0.0017735367924663348
147.0,0.4609890749316795,0.4615324472763838,0.0017237350487290803
147.2,0.4559118835546279,0.4564552558993322,0.0018022910677465975
147.4,0.4501844449346781,0.4507278172793824,0.0013827867905678026
147.6,0.4441658708737681,0.4447092432184724,0.0008030954491955455
147.8,0.4383142578766847,0.438857630221389,0.000499611607653383
148.0,0.4322741084686876,0.4328174808133919,9.487144565778483e-05
148.2,0.42636327711747174,0.42690664946217605,-0.00011528086320339304
148.4,0.42081702213468336,0.42136039447938767,8.259894238399346e-05
148.6,0.41519386461989743,0.41573723696460174,0.00022567145551904977
148.8,0.4098262393097449,0.4103696116544492,0.0006257353290819445
149.0,0.404733324818664,0.4052766971633683,0.001282337553525248
149.2,0.3993888328036471,0.3999322051483514,0.0016508465524761595
149.4,0.3944029845150549,0.3949463568597592,0.002324710538766539
149.6,0.3889359083550209,0.3894792806997252,0.00244912810808412
149.8,0.3838041379041151,0.3843475102488194,0.002827803431285969
150.0,0.37828038490326255,0.37882375724796685,0.0027229531826874487
150.5,0.36505411498355633,0.36559748732826064,0.002597902904604099
151.0,0.35172464893287486,0.35226802127757917,0.0017068876902532337
151.5,0.33812984429713094,0.33867321664183525,-4.8725021488060793e-05
152.0,0.3251409934083406,0.3256843657530449,-0.0016281115177364525
152.5,0.3130764718711273,0.3136198442158316,-0.0024574421944700275
153.0,0.30145434460171755,0.30199771694642186,-0.0027101082243939922
153.5,0.2894001881426253,0.2899435604873296,-0.0029404234400401963
154.0,0.27714866499795926,0.27769203734266357,-0.0026263986314142285
154.5,0.26369884497888807,0.2642422173235924,-0.0025549711261372288
155.0,0.24983737671995984,0.2503807490646642,-0.0018294862176382876
155.5,0.23507076174787583,0.23561413409258014,-0.0009537764054300679
156.0,0.21970654661792496,0.22024991896262927,0.00024888283163360114
156.5,0.20339995229897473,0.20394332464367904,0.0011976249571791775
157.0,0.18705847901074327,0.18760185135544757,0.002485946404830519
157.5,0.1708060433092186,0.17134941565392292,0.0038804553351360904
158.0,0.1541425799782427,0.15468595232294702,0.004516889220646886
158.5,0.137836359416931,0.13837973176163532,0.004825613440265664
159.0,0.12140770610993648,0.1219510784546408,0.004041457950266614
159.5,0.1057307168457468,0.10627408919045112,0.0028223100864231687
160.0,0.0906452739514065,0.09118864629611081,0.0008682851218722032
160.5,0.07691586439903987,0.07745923674374419,-0.001121039437806351
161.0,0.06474293214984274,0.06528630449454706,-0.0029436328771852843
161.5,0.053609747397640566,0.054153119742344887,-0.0050608491929136495
162.0,0.04433051908207764,0.04487389142678196,-0.0065639487448136274
162.5,0.03610086418965936,0.03664423653436368,-0.008138136309611917
163.0,0.02936320348891581,0.029906575833620132,-0.00921005535359003
163.5,0.024010410797777024,0.024553783142481345,-0.00975453614098418
164.0,0.019699131989549874,0.020242504334254195,-0.00998886135952912
164.5,0.01632242845105217,0.016865800795756492,-0.009905002424518194
165.0,0.013420156886214405,0.013963529230918724,-0.009861799193090787
165.5,0.011071340471628752,0.011614712816333073,-0.009693347310795488
166.0,0.009375491532257075,0.009918863876961396,-0.009227173892767896
166.5,0.0077375691615246996,0.00828094150622902,-0.008998004630975574
167.0,0.006437942806602759,0.006981315151307079,-0.008676142918663053
167.5,0.005240830537082559,0.005784202881786879,-0.008457276850863841
168.0,0.004430698989026006,0.004974071333730326,-0.008024411823177657
168.5,0.0036871846738151153,0.004230557018519435,-0.007671471650604125
169.0,0.0030516266028376903,0.0035949989475420104,-0.007335520195431995
169.5,0.0026851814568768476,0.0032285538015811677,-0.006837634005331725
170.0,0.002269588528746072,0.002812960873450392,-0.006481337219358344
170.5,0.0018750613800243127,0.002418433724728633,-0.006184089626352579
171.0,0.0016014301877621704,0.0021448025324664905,-0.005835669440902505
171.5,0.0013887694203612365,0.0019321417650655565,-0.005487184319986828
172.0,0.0012775844381375787,0.0018209567828418988,-0.005090610160161104
172.5,0.0010141302357921443,0.0015575025804964644,-0.00489326322922265
173.0,0.0009089928171530826,0.0014523651618574026,-0.00457905921968252
173.5,0.0007090913760740798,0.0012524637207783997,-0.0043963896109054275
174.0,0.000625672888020442,0.001169045232724762,-0.004130035777934611
174.5,0.0006238982318165177,0.0011672705765208378,-0.0038115162489127065
175.0,0.0007538437120314333,0.0012972160567357534,-0.0033880393177736327
175.5,0.0007765410530909297,0.0013199133977952497,-0.0030964347592817004
176.0,0.0007710754319609164,0.0013144477766652365,-0.0028560419395923303
176.5,0.0009947489644399911,0.0015381213091443112,-0.0024085432335084395
177.0,0.001045926928021698,0.0015892992727260182,-0.0021551208259298687
177.5,0.0014512462508757967,0.0019946185955801166,-0.001569251509716583
178.0,0.0014271288385470516,0.001970501183251372,-0.0014351898028195247
178.5,0.001663576931539298,0.002206949276243618,-0.0010641540784247024
179.0,0.001630053679045574,0.002173426023749894,-0.0009884039382417721
179.5,0.0019689587213856125,0.0025123310660899326,-0.0005676908080664259
180.0,0.0024174249138898627,0.0029607972585941828,-6.734882046174678e-05
180.5,0.00248779032431452,0.00303116266901884,2.2332315221449978e-05
181.0,0.002600011374019807,0.003143383718724127,0.00011871866305232471
181.5,0.002983809055368593,0.003527181400072913,0.0004492150763426134
182.0,0.003089097080346697,0.003632469425051017,0.00046195882979662654
182.5,0.00326898736164872,0.0038123597063530403,0.0005091039343197911
183.0,0.0035600053912847565,0.004103377735989077,0.0006273086213227459
183.5,0.0037007533745182326,0.004244125719222553,0.0005566404539355729
184.0,0.003815121323733868,0.004358493668438188,0.0004239746265950533
184.5,0.003950781844558719,0.0044941541892630395,0.0002815978494352927
185.0,0.004291188298861142,0.004834560643565462,0.00031921820989305565
185.5,0.00448981910623929,0.00503319145094361,0.00019811110187159184
186.0,0.0046588576824909845,0.0052022300271953046,3.958673060168363e-05
186.5,0.004964991368810195,0.005508363713514515,2.04684649215605e-05
187.0,0.005107249383510225,0.005650621728214545,-0.0001494819303233261
187.5,0.005189249540483842,0.005732621885188162,-0.0003557973179807968
188.0,0.005547216411275253,0.006090588755979573,-0.00025180158922363804
188.5,0.005773704136290414,0.006317076480994734,-0.00023539984310371777
189.0,0.005902853048587001,0.006446225393291321,-0.00026429601397756717
189.5,0.006025670021531268,0.0065690423662355885,-0.00024111362500654158
190.0,0.006064952112302135,0.006608324457006455,-0.00023877167350639088
190.5,0.006107275491314496,0.006650647836018816,-0.00016867378215020337
191.0,0.005802587426026311,0.006345959770730631,-0.0003811631272810888
191.5,0.0055343698948621765,0.0060777422395664965,-0.0004952755189853554
192.0,0.005876513221145418,0.006419885565849738,5.8336718040304276e-05
192.5,0.005783277808025214,0.006326650152729534,0.00022766856451220986
193.0,0.0056134898817708926,0.006156862226475213,0.0003639338916570497
193.5,0.00537156358225015,0.00591493592695447,0.00046300774355164786
194.0,0.005000576501340144,0.0055439488460444645,0.0004589362460213596
194.5,0.0046414927323206075,0.0051848650770249275,0.00048357986233205
195.0,0.003863349800487409,0.0044067221451917285,9.71819938850281e-05
195.5,0.003543841090729716,0.004087213435434036,0.0001692756661882365
196.0,0.003056510510196905,0.003599882854901225,6.613249377144864e-05
196.5,0.002845202693708732,0.0033885750384130523,0.00022539117295762362
197.0,0.0024280284791843615,0.0029714008238886816,0.0001601252154515508
197.5,0.0019596007857781,0.00250297313048242,2.111018293871926e-05
198.0,0.0018206150956507324,0.0023639874403550525,0.00018637369054846833
198.5,0.001288097261290154,0.001831469605994474,-6.863742957441995e-05
199.0,0.0009147143515864232,0.0014580866962907433,-0.00019186414182820882
199.5,0.0004935595869278942,0.0010369319316322141,-0.00038999230515993706
200.0,0.0003447067140831931,0.0008880790587875132,-0.00034205233901936014
200.5,1.161866626969105e-06,0.0005445342113312892,-0.000513622829660487
201.0,-0.00016768571944525597,0.0003756866252590641,-0.0005335281447724601
201.5,-0.00018420993205161263,0.00035916241265270747,-0.00042211949387516005
202.0,-0.0003459829913422803,0.0001973893533620398,-0.00047482728765550243
202.5,-0.0004410766179392412,0.00010229572676507886,-0.00047755956804941687
203.0,-0.0004015021973233469,0.0001418701473809732,-0.0003602190196267328
203.5,-0.0003848125949915064,0.00015855974971281365,-0.0002783620145145595
204.0,-0.0005121347995748676,3.123754512945247e-05,-0.0003512706186776013
204.5,-0.0005433723447043201,0.0,-0.0003371788645933009
205.0,-0.0004997579589706001,4.361438573372001e-05,-0.00025583639232733155
205.5,-0.0004153001766655861,0.00012807216803873399,-0.0001399558949129668
206.0,-0.0003323376179564452,0.00021103472674787485,-3.076064455022104e-05
206.5,-0.0003457393635236075,0.00019763298118071257,-2.2172831080421405e-05
207.0,-0.0002492631620762366,0.00029410918262808347,9.284357682854148e-05
207.5,-0.00026008973703237754,0.00028328260767194254,9.776557306449772e-05
208.0,8.098882773551888e-05,0.0006243611724398389,0.00045234022902511807
208.5,-2.147109714551386e-05,0.0005219012475588062,0.000361561544575078
209.0,2.6615383686572713e-05,0.0005699877283908928,0.0004198664621212246
209.5,0.00010419984325672242,0.0006475721879610425,0.0005064874848497434
210.0,6.238713427872284e-05,0.0006057594789830429,0.0004727520703348315
210.5,-3.0722766760036074e-05,0.000512649577944284,0.0003869355413712792
211.0,-4.87222859759781e-05,0.000494650058728342,0.000375582952764111
211.5,-0.00016061491380639563,0.00038275743089792445,0.00026979826772507987
212.0,-3.5954086489077385e-06,0.0005397769360554124,0.000432470594982532
212.5,-0.0002005526873122938,0.0003428196573920263,0.0002407765171231046
213.0,-0.00010609797812544872,0.00043727436657887134,0.00034015611194848584
213.5,-0.00020394897042967525,0.00033942337427464485,0.0002469321024996324
214.0,-0.0001544839363662265,0.0003888884083380936,0.00030075831451894765
214.5,-0.00025406160857146084,0.00028931073613285924,0.0002053017943672643
215.0,-6.494326797770268e-05,0.0004784290767266174,0.00039832225065586526
215.5,-0.00031022609463655774,0.00023314625006776233,0.0001567398653765956
216.0,-1.9167682303300296e-05,0.0005242046624010198,0.0004513116551069541
216.5,-0.0004078178028865651,0.00013555454181775497,6.60003620202966e-05
217.0,-0.0003023506950643224,0.00024102164963999768,0.00017464265287216372
217.5,-0.0002836198557763692,0.0002597524889279509,0.00019639468848268337
218.0,-0.0002833254643000056,0.0002600468804043145,0.00019956496598409548
218.5,-0.0002847376739032755,0.0002586346708010446,0.00020089122333908754
219.0,-0.0005254066347156691,1.7965709988650982e-05,-3.716943894822674e-05
219.5,-0.0003617917643751702,0.0001815805803291499,0.00012893027842776774
220.0,-0.0001637378144428105,0.00037963453026150956,0.00032935188672175014
