wavelength,absorbance,absorbance_bk,residual_3gauss,Gauss_1,Gauss_2,Gauss_3,Gauss_4,Gauss_fit
117.0,1.1780336804021088,1.178701769939007,0.002602825206641013,2.219412430267591e-06,1.0639387985557178e-56,1.1760967253199357,6.154572810513835e-164,1.176098944732366
117.5,1.1742218528456765,1.1748899423825747,0.008025835050316399,3.939430409908575e-06,8.481584819911224e-55,1.1668601679018484,2.1833344308592846e-160,1.1668641073322583
118.0,1.1469284215768698,1.147596511113768,-0.008570833375117548,6.8694293483920585e-06,6.039714133469747e-53,1.1561604750595371,6.606878524534306e-157,1.1561673444888856
118.5,1.139039865151707,1.1397079546886053,-0.004382464847169976,1.1772475943944319e-05,3.850969349441953e-51,1.1440786470598314,1.710768337553729e-153,1.1440904195357753
119.0,1.1312776459810931,1.1319457355179914,0.001227830714885636,1.9835309969743597e-05,2.20368237149259e-49,1.130698069493136,3.8022341865301235e-150,1.1307179048031057
119.5,1.1141974790659055,1.1148655686028037,-0.0012711675111154452,3.286959936975498e-05,1.134332706669561e-47,1.1161038665145495,7.275166060544708e-147,1.1161367361139192
120.0,1.0972320754291744,1.0979001649660727,-0.002535712416610547,5.359083031982282e-05,5.263912280887052e-46,1.1003822865523634,1.201925147639357e-143,1.1004358773826832
120.5,1.0847965483964817,1.0854646379333799,0.0017585180031882697,8.59963351544733e-05,2.2069644422195912e-44,1.0836201235950371,1.719442676177716e-140,1.0837061199301916
121.0,1.068390378993604,1.0690584685305022,0.0030184257005063664,0.00013586635309797092,8.377616200645645e-43,1.065904176476898,2.1359497950261064e-137,1.0660400428299959
121.5,1.0497424688085328,1.050410558345431,0.0028783972371762,0.0002114131749345026,2.885244884400469e-41,1.0473207479333204,2.3103482192991835e-134,1.0475321611082549
122.0,1.0284083777570752,1.0290764672939734,0.0007971800609218871,0.00032410264025820284,9.033581201844181e-40,1.0279551845927932,2.18177686095442e-131,1.0282792872330515
122.5,1.0075844485092311,1.0082525380461294,-0.00012858923856429172,0.0004896687650672656,2.576380941341533e-38,1.0078914585196264,1.8035460623634784e-128,1.0083811272846936
123.0,0.9843873056641651,0.9850553952010632,-0.002885730535252873,0.000729335317291096,6.7061184559335995e-37,0.987211790419025,1.3083997939064893e-125,0.9879411257363161
123.5,0.9654316338405167,0.9660997233774148,-0.0009678378689593758,0.001071247079201973,1.5961085554391367e-35,0.9659963141671722,8.350985678046922e-123,0.9670675612463742
124.0,0.9393732891340297,0.9400413786709279,-0.005833501187116785,0.001552097925303147,3.4800390227503795e-34,0.9443227819327414,4.700919590017037e-120,0.9458748798580446
124.5,0.9176593839157242,0.9183274734526223,-0.006157758017903081,0.0022189226584980693,6.963355453737062e-33,0.9222663088120273,2.339462791055087e-117,0.9244852314705254
125.0,0.8940588048487143,0.8947268943856124,-0.00830325645919161,0.003130995238333852,1.2809447097512663e-31,0.8998991556064702,1.0317046042449841e-114,0.903030150844804
125.5,0.8739900206370814,0.8746581101739795,-0.006994186601860686,0.004361748649603094,2.170036102241655e-30,0.8772905481262371,4.0410664754977082e-112,0.8816522967758402
126.0,0.8528173188500243,0.8534854083869224,-0.007021725705440018,0.006000602887867138,3.3912429015963417e-29,0.8545065312044953,1.4090029155778464e-109,0.8605071340923625
126.5,0.8319724601156246,0.8326405496525228,-0.007123865492563497,0.008154559694083054,4.896891248309638e-28,0.8316098554510032,4.3828423857634985e-107,0.8397644151450863
127.0,0.8125653260288599,0.813233415565758,-0.006375877678059472,0.010949398586398306,6.544100626962214e-27,0.8086598946574192,1.2188776640009626e-104,0.8196092932438175
127.5,0.7963293187433204,0.7969974082802185,-0.003245474979794105,0.014530291572900278,8.106440919786261e-26,0.7857125916871123,3.0369447282843756e-102,0.8002428832600126
128.0,0.7803833425741118,0.7810514321110099,-0.0008306454204772828,0.019061646895933714,9.322424537695439e-25,0.7628204306355535,6.793269054961724e-100,0.7818820775314872
128.5,0.7642397652864814,0.7649078548233795,0.0001494236115967551,0.02472599818135365,9.967788958665844e-24,0.7400324330304291,1.3669716101704495e-97,0.7647584312117828
129.0,0.7521634378580707,0.7528315273949688,0.0037155748316118897,0.031721776713743495,9.923813887134775e-23,0.7173941758496134,2.4793276684614852e-95,0.749115952563357
129.5,0.7409583776836963,0.7416264672205944,0.006418795569336,0.040259842484086684,9.212822312449614e-22,0.6949478291671718,4.06105597889954e-93,0.7352076716512584
130.0,0.7314267153781692,0.7320948049150673,0.00880388953395772,0.05055870409208379,7.986415465048313e-21,0.6727322112890258,6.018576891657254e-91,0.7232909153811096
130.5,0.7231188040843615,0.7237868936212596,0.010165607374249541,0.06283842693902945,6.473716818614971e-20,0.6507828593079806,8.085378366551313e-89,0.71362128624701
131.0,0.7176347770305603,0.7183028665674585,0.011857443241488186,0.0773133102364101,4.913404958140519e-19,0.6291321130895602,9.863786108670888e-87,0.7064454233259703
131.5,0.7130297672223592,0.7136978567592573,0.011705144461865102,0.09418350150462995,3.496312685112261e-18,0.6078092107927623,1.0946929910845538e-84,0.7019927122973922
132.0,0.7116545042660257,0.7123225938029238,0.011856393128320875,0.11362580654346853,2.335587938404394e-17,0.5868403941311344,1.1071310013943008e-82,0.700466200674603
132.5,0.7129774102497403,0.7136454997866384,0.011612441484082026,0.13578403661551305,1.4665192555124266e-16,0.5662490216870432,1.022116984034087e-80,0.7020330583025564
133.0,0.716754189303051,0.7174222788399491,0.010607284304537168,0.16075930583160075,8.666035496103798e-16,0.5460556887038104,8.628171558009541e-79,0.706814994535412
133.5,0.7227260717701927,0.7233941613070908,0.008515065555026458,0.18860074385741835,4.825233961645196e-15,0.5262783518946411,6.670528634907776e-77,0.7148790957520643
134.0,0.7316963446146045,0.7323644341515027,0.006134859776927626,0.21929711645221187,2.5345120839836316e-14,0.5069324579223378,4.730610887681336e-75,0.726229574374575
134.5,0.7432161159646864,0.7438842055015845,0.0030832862443500586,0.25276984493869614,1.2573331164725553e-13,0.4880310743184126,3.0822485537282696e-73,0.7408009192572345
135.0,0.758706244256725,0.7593743337936231,0.0009214286403858019,0.2888678834296235,5.897630841045262e-13,0.469585021723024,1.84788792288592e-71,0.7584529051532373
135.5,0.7763492058735594,0.7770172954104575,-0.001950560760102249,0.32736484973058566,2.618525945126558e-12,0.4516030064373556,1.0209198899598787e-69,0.7789678561705597
136.0,0.798066242666939,0.7987343322038372,-0.0033161350901435016,0.36795871489637394,1.1016887113548875e-11,0.4340917523865898,5.205387496011694e-68,0.8020504672939807
136.5,0.822496526206222,0.8231646157431202,-0.0041657582575461705,0.41027424226273523,4.396877503140119e-11,0.41705613169396233,2.4529245649226076e-66,0.8273303740006663
137.0,0.8501672942447251,0.8508353837816233,-0.0035321456644631377,0.453868236115508,1.6663426845917466e-10,0.4004992931639441,1.0697857053730782e-64,0.8543675294460864
137.5,0.8800861370971365,0.8807542266340346,-0.0019060831064415806,0.498237521075262,6.002889293151753e-10,0.3844227880649253,4.324045625899484e-63,0.8826603097404762
138.0,0.9109767259814656,0.9116448155183637,-1.1313811471569402e-05,0.5428294345835505,2.0576179966618125e-09,0.3688266926886669,1.62200424729986e-61,0.9116561293298353
138.2,0.9229144240397498,0.9235825135766479,0.0002625771888685735,0.5605974075639545,3.322125157744893e-09,0.36272252550169964,6.772750932219742e-61,0.9233199363877793
138.4,0.9353601337327652,0.9360282232696633,0.0010653266400602046,0.5782679973286756,5.322394961369769e-09,0.35669489397853243,2.7952308711908274e-60,0.9349628966296031
138.6,0.9473196758422712,0.9479877653791693,0.001442285139232835,0.5958018432934954,8.461834935249958e-09,0.3507436284846062,1.1403699192493364e-59,0.9465454802399365
138.8,0.9592179203592234,0.9598860098961215,0.001858142960565412,0.6131593236851745,1.3351024430897604e-08,0.34486852989935723,4.599229168522659e-59,0.9580278669355561
139.0,0.970193316442049,0.9708614059789471,0.0014912950524345048,0.6303007192945292,2.0906592516893613e-08,0.3390693707253908,1.833880479230654e-58,0.9693701109265126
139.2,0.9819328001106957,0.9826008896475938,0.0020685819658492477,0.6471863790095043,3.24934897005455e-08,0.33334589617875066,7.230009283985409e-58,0.9805323076817446
139.4,0.9935022198432198,0.994170309380118,0.00269554790833737,0.6637768860838604,5.012789793089279e-08,0.3276978252600222,2.8185349189652176e-57,0.9914747614717806
139.6,1.0036074763894287,1.004275565926327,0.002117413262370027,0.6800332240938781,7.676408072544058e-08,0.322124851805998,1.0865740560588756e-56,1.002158152663957
139.8,1.0137562602021974,1.0144243497390957,0.0018806459801024022,0.6959169415409883,1.1669633367573282e-07,0.3166266455216714,4.142675569506816e-56,1.0125437037589933
140.0,1.0229553019289974,1.0236233914658956,0.0010300482838436764,0.711390314072383,1.7611726575374484e-07,0.3112028529924032,1.5621482825184747e-55,1.022593343182052
140.2,1.0323391082231,1.0330071977599982,0.0007373318829206887,0.7264165033146291,2.638863830318658e-07,0.30585309867606514,5.8266256722921726e-55,1.0322698658770775
140.4,1.0411575904351367,1.041825679972035,0.00028859017206439574,0.7409597113460521,3.925788551928999e-07,0.3005769858750633,2.149804814500821e-54,1.0415370897999705
140.6,1.048180640291145,1.0488487298280433,-0.0015112776364623048,0.7549853298724332,5.799039359110673e-07,0.29537409768813655,7.846956589788165e-54,1.0503600074645056
140.8,1.055349120538966,1.0560172100758642,-0.0026877216888179234,0.768460083216556,8.50606283345235e-07,0.29024399794184286,2.8337188960142247e-53,1.0587049317646822
141.0,1.062908644634916,1.0635767341718143,-0.0029629012064156246,0.7813521642846707,1.2389918354593733e-06,0.2851862321017238,1.0125076422305549e-52,1.06653963537823
141.2,1.0690834494684707,1.069751539005369,-0.0040819441429138514,0.793631362731915,1.7922532763273828e-06,0.28020032816309126,3.579796612567106e-52,1.0738334831482828
141.4,1.0747862373361048,1.075454326873003,-0.005103230069913867,0.8052691846127946,2.5748086440533346e-06,0.2752857975214781,1.2524751271269167e-51,1.0805575569429169
141.6,1.080809573768704,1.0814776633056022,-0.005207109299289359,0.8162389628719598,3.6739101736529362e-06,0.27044213582275806,4.3367315817186535e-51,1.0866847726048916
141.8,1.086437050591602,1.0871051401285001,-0.005084848596540237,0.8265159581034782,5.206828570447444e-06,0.2656688237929918,1.4861763988430435e-50,1.0921899887250404
142.0,1.0894042073858843,1.0900722969227825,-0.006977810178023569,0.8360774490831019,7.3299696285551975e-06,0.2609653280480756,5.041085024207208e-50,1.097050107100806
142.2,1.0954379199344333,1.0961060094713315,-0.00513815540273499,0.8449028126568792,1.0250333912354472e-05,0.256331101883275,1.6926015796410697e-49,1.1012441648740665
142.4,1.0979442051939927,1.098612294730891,-0.006141123745709187,0.8529735926499693,1.4239783869056328e-05,0.25176558604276167,5.62591914287201e-49,1.1047534184766001
142.6,1.1020190450227905,1.1026871345596887,-0.004874285083867669,0.860273557541091,1.96526331920459e-05,0.24726820946927341,1.8512751854292572e-48,1.1075614196435564
142.8,1.104277663941746,1.1049457534786442,-0.004708330401739236,0.8667887467297744,2.6947116572610866e-05,0.24283839003403643,6.03139410696497e-48,1.1096540838803834
143.0,1.1062684645752388,1.106936554112137,-0.004083197769084057,0.8725075053048049,3.6711329295133365e-05,0.23847553524712103,1.945646396769615e-47,1.111019751881221
143.2,1.108459352172568,1.1091274417094663,-0.002521802780908189,0.8774205073023318,4.9694239659477426e-05,0.23417904294838326,6.214978198228565e-47,1.1116492444903745
143.4,1.1091263843300982,1.1097944738669965,-0.001741437998722395,0.8815207675201939,6.684236632479611e-05,0.22994830197920016,1.9659595080677808e-46,1.1115359118657189
143.6,1.107417973756026,1.1080860632929241,-0.002589614243017291,0.8848036420307028,8.934267005866789e-05,0.22578269283517985,6.158831671850885e-46,1.1106756775359414
143.8,1.1073596806191923,1.1080277701560906,-0.0010393078779256104,0.8872668176066263,0.00011867212733438126,0.22168158830005555,1.9109099419698588e-45,1.1090670780340162
144.0,1.1050985601321708,1.105766649669069,-0.0009446490599442914,0.8889102903440029,0.00015665432400680806,0.21764435406100355,5.87258498026102e-45,1.1067112987290133
144.2,1.1022650318348388,1.102933121371737,-0.0006790849877214011,0.8897363338302395,0.00020552322363223373,0.2136703493055867,1.787699273595138e-44,1.1036122063594584
144.4,1.0978009843793344,1.0984690739162326,-0.001307304671161802,0.8897494572661541,0.0002679940206518103,0.20975892730058848,5.390937736842491e-44,1.0997763785873944
144.6,1.0937388757937767,1.094406965330675,-0.0008061653074482589,0.8889563540060039,0.000347340679150454,0.20590943595296887,1.6105242923071433e-43,1.0952131306381232
144.8,1.0892012681152172,1.0898693576521155,-6.518111200026766e-05,0.8873658410296662,0.00044747938124907173,0.20212121835320043,4.766850686505174e-43,1.0899345387641157
145.0,1.0833173713796835,1.0839854609165818,3.000104278272353e-05,0.8849887899058517,0.0005730566666868253,0.19839361330126054,1.3979289445281045e-42,1.083955459873799
145.2,1.0768446637894546,1.0775127533263529,0.00021920712439404966,0.881838049844292,0.0007295405421432746,0.1947259558155235,4.0621474586979186e-42,1.0772935462019588
145.4,1.0710720499955413,1.0717401395324395,0.0017708861540235432,0.8779283634681758,0.0009233122853900338,0.19111757762485004,1.1696902112733153e-41,1.069969253378416
145.6,1.0637151000383032,1.0643831895752014,0.002377349884689517,0.8732762759656248,0.001161756080743089,0.18756780764414396,3.337781801338788e-41,1.0620058396905119
145.8,1.0553947134274393,1.0560628029643375,0.002633449210672101,0.8679000383006804,0.0014533430193308706,0.18407597243365423,9.439392989989817e-41,1.0534293537536654
146.0,1.0469181268420056,1.0475862163789038,0.0033176091495963345,0.861819505180237,0.0018077054067468863,0.1806413966423235,2.645794711210575e-40,1.0442686072293075
146.2,1.037725947826764,1.0383940373636622,0.00383890867137171,0.855056028483593,0.0022356967732328737,0.1772634034354647,7.35056764835071e-40,1.0345551286922905
146.4,1.0278607259509567,1.028528815487855,0.004205721201240742,0.8476323468660312,0.0027494325135277845,0.1739413149070552,2.0242529167758044e-39,1.0243230942866142
146.6,1.0162682528026832,1.0169363423395814,0.0033271118813262834,0.839572472247319,0.003362305733970501,0.17067445247696572,5.5260413134023714e-39,1.0136092304582551
146.8,1.0049603863710457,1.005628475907944,0.0031757920504043025,0.830901573890218,0.004088972693931537,0.16746213727339013,1.4955296831560394e-38,1.0024526838575396
147.0,0.9940617909644807,0.9947298805013788,0.0038350269997116104,0.8216458607637317,0.004945302237127028,0.16430369050080842,4.012669594098842e-38,0.9908948535016672
147.2,0.981067729558855,0.9817358190957531,0.0027566385784968395,0.811832462870628,0.005948283852871911,0.16119843379375637,1.067468132729954e-37,0.9789791805172563
147.4,0.9687570242333428,0.9694251137702409,0.0026742224947106097,0.8014893121996385,0.007115889519171043,0.15814568955672073,2.8156916592893694e-37,0.9667508912755303
147.6,0.9551121382280003,0.9557802277648985,0.0015235372531766656,0.790645023939552,0.008466885281714335,0.15514478129045542,7.364601247435985e-37,0.9542566905117218
147.8,0.9410443516974452,0.9417124412343433,0.00016803913635399237,0.7793287785657911,0.010020589627186901,0.15219503390501127,1.9101719529840124e-36,0.9415444020979893
148.0,0.9282102391386736,0.9288783286755717,0.00021577216120638454,0.7675702053804042,0.011796577114163612,0.14929577401979754,4.91337261315741e-36,0.9286625565143654
148.2,0.9143964782752816,0.9150645678121797,-0.0005953579057002001,0.7553992680537887,0.01381432741313707,0.14644633025095422,1.2534172975278146e-35,0.9156599257178799
148.4,0.9018395161395873,0.9025076056764855,-7.74023365506249e-05,0.7428461526817647,0.016092821844919763,0.1436460334863516,3.171355747515934e-35,0.9025850080130361
148.6,0.8892394452262464,0.8899075347631445,0.00042206713732195755,0.7299411588347214,0.018650091642595422,0.14089421714850564,7.958878916240009e-35,0.8894854676258226
148.8,0.8775712942916154,0.8782393838285135,0.0018318479173680124,0.716714594037173,0.02150272442827631,0.13819021744569623,1.9812563390082767e-34,0.8764075359111455
149.0,0.8653277338371513,0.8659958233740495,0.002600439977039959,0.703196672076602,0.024665337708804646,0.13553337361160286,4.892549989942224e-34,0.8633953833970095
149.2,0.8536833141432314,0.8543514036801295,0.00386092958820905,0.6894174154998686,0.028150030458326994,0.13292302813372495,1.1985592822743402e-33,0.8504904740919205
149.4,0.8421273070123358,0.842795396549234,0.005064480998313914,0.6754065626147409,0.031965825965286805,0.13035852697089229,2.912976942539745e-33,0.83773091555092
149.6,0.8301840009865331,0.8308520905234312,0.005701270522707191,0.6611934792729697,0.036118120967608476,0.12783921976014587,7.024110094062145e-33,0.825150820000724
149.8,0.8186830686384969,0.8193511581753951,0.006571464917418335,0.6468070756704728,0.04060815757423695,0.12536446001326695,1.6805273622182458e-32,0.8127796932579767
150.0,0.8062259411538046,0.8068940306907028,0.006252161555476254,0.6322757283598943,0.04543253547208856,0.1229336053032436,3.9895414858698673e-32,0.8006418691352265
150.5,0.7768532398600971,0.7775213293969953,0.0060959466566877785,0.595493801432354,0.05888720548012452,0.11704437582782903,3.3495979856931935e-31,0.7714253827403075
151.0,0.746822789205857,0.7474908787427551,0.003604765310294189,0.5583919737263229,0.07407841158986068,0.11141572811627729,2.681966492957665e-30,0.7438861134324609
151.5,0.7174899987871117,0.7181580883240098,0.0002714825326946002,0.52135280362014,0.09049580153542547,0.10603800063574972,2.0495192608979025e-29,0.7178866057913152
152.0,0.6891698626924702,0.6898379522293683,-0.0032043353846383793,0.4847228941127373,0.10741766241215578,0.10090173108911361,1.4959919270717714e-28,0.6930422876140067
152.5,0.6628539239893554,0.6635220135262535,-0.0052432264473516454,0.44880997681124646,0.12395759599954856,0.09599766716281007,1.0438050031190532e-27,0.6687652399736052
153.0,0.637725235288783,0.6383933248256811,-0.005945915007866565,0.41388124521006886,0.13914121914330502,0.09131677548017379,6.967075124261063e-27,0.6443392398335477
153.5,0.6122241576541972,0.6128922471910954,-0.006124528641669236,0.3801628303880716,0.152003696542352,0.08685024890234101,4.451892634195491e-26,0.6190167758327646
154.0,0.5853711580242985,0.5860392475611966,-0.0060846632684217195,0.3478402890357609,0.16169410948160198,0.08258951231225543,2.7253237322093177e-25,0.5921239108296183
154.5,0.5570045498314754,0.5576726393683735,-0.005484063072536904,0.317059958689269,0.16757051674106685,0.07852622701057456,1.5994884491435423e-24,0.5631567024409104
155.0,0.5273905514788111,0.5280586410157092,-0.0037953721167578447,0.28793102756791855,0.16927069171899325,0.07465229384555527,9.006134054057361e-24,0.531854013132467
155.5,0.4956873989757109,0.496355488512609,-0.0018802473936851971,0.2605281656147633,0.16674771509923692,0.07095985519229403,4.868432312889313e-23,0.4982357359062942
156.0,0.462234411976683,0.46290250151358114,0.0003007465386546393,0.23489456819265384,0.16026589089220442,0.06744129589006823,2.5282906520612987e-22,0.4626017549749265
156.5,0.42752224148744095,0.42819033102433907,0.002696435010740239,0.21104527327889377,0.15035937949469783,0.06408924324000725,1.262235446972193e-21,0.4254938960135988
157.0,0.3927129505899352,0.39338104012683334,0.005751870595553599,0.1889706258050261,0.13776197756730366,0.060896566158949936,6.0619509354839976e-21,0.38762916953127974
157.5,0.3583120605994039,0.358980150136302,0.009163574843178923,0.16863977792579757,0.12332042378818599,0.05785637357913954,2.8023423185641866e-20,0.3498165752931231
