wavelength,absorbance,absorbance_bk,residual_3gauss,Gauss_1,Gauss_2,Gauss_3,Gauss_4,Gauss_fit
117.0,0.4429797043829608,0.4487291044740741,-0.004790519696063478,4.4927607667512064e-07,2.0696852323821042e-57,0.4535191748940609,1.0730161187100141e-97,0.4535196241701376
117.5,0.4407208363924633,0.4464702364835766,-0.0038322533943797032,8.192070236554991e-07,1.693294464220247e-55,0.45030167067093263,1.2847739739835257e-95,0.4503024898779563
118.0,0.4403488638755516,0.4460982639666649,-0.0004142174803812293,1.4662898540814633e-06,1.2366336896296783e-53,0.44651101515719205,1.4019915013996052e-93,0.44651248144704614
118.5,0.43474423982551286,0.44049363991662616,-0.0016862698238927498,2.5773143223462e-06,8.081122510547185e-52,0.44217733242619656,1.396877584511832e-91,0.4421799097405189
119.0,0.4315188250563055,0.4372682251474188,-6.800600039424953e-05,4.45048931453395e-06,4.736324859045522e-50,0.43733178065849854,1.2730445900980793e-89,0.43733623114781306
119.5,0.4276586453498378,0.4334080454409511,0.0013941895469737342,7.552805616182214e-06,2.4954206174671295e-48,0.43200630308836113,1.063069061034258e-87,0.43201385589397734
120.0,0.4224017595054482,0.4281511595965615,0.0019051674061021373,1.2601795057926525e-05,1.1845370107096125e-46,0.4262333903954015,8.148074884480449e-86,0.4262459921904594
120.5,0.4166276117853512,0.4223770118764645,0.0023104765551604234,2.0679479960482033e-05,5.076958898860951e-45,0.4200458558413436,5.741832473103922e-84,0.42006653532130406
121.0,0.41048364003798216,0.41623304012909546,0.00272302830327803,3.338763782296354e-05,1.968948504223353e-43,0.41347662418799447,3.7261296763096795e-82,0.4135100118258174
121.5,0.4040549656195698,0.40980436571068307,0.0031927759592305094,5.3054568567762266e-05,6.923806630463932e-42,0.4065585351828848,2.2303417666404327e-80,0.40661158975145256
122.0,0.3957839942504656,0.4015333943415789,0.002126228089993465,8.300408601251346e-05,2.2121710193325527e-40,0.3993241621655729,1.2333020103079208e-78,0.39940716625158545
122.5,0.3872055645805152,0.3929549646716285,0.0010214213902146052,0.0001278971494498001,6.434557877904304e-39,0.3918056461319641,6.309798650647178e-77,0.3919335432814139
123.0,0.3791795739551356,0.3849289740462489,0.00070027358801239,0.00019415506112811968,1.7072151875625976e-37,0.38403454539710835,2.991288926001649e-75,0.3842287004582365
123.5,0.3705619678315116,0.3763113679226249,-2.08030358270217e-05,0.00029047013897074206,4.1395336602970294e-36,0.37604170081948113,1.315928996134586e-73,0.3763321709584519
124.0,0.36181149897271714,0.36756089906383044,-0.0007246222661222435,0.0004284049380463566,9.189957219399306e-35,0.3678571163919063,5.379702329070487e-72,0.3682855213299527
124.5,0.35318168481553486,0.35893108490664816,-0.0012018442115223071,0.0006230742523112735,1.871378115701791e-33,0.3595098548658592,2.0466453134013895e-70,0.36013292911817046
125.0,0.3433900806001635,0.3491394806912768,-0.0027823625265027685,0.0008938952611596343,3.5015866154197893e-32,0.35102794795661996,7.255695756430059e-69,0.3519218432177796
125.5,0.3356196917129285,0.3413690918040418,-0.002334609272852839,0.0012653805010971056,6.030807012462069e-31,0.34243832057579754,2.400205015944368e-67,0.34370370107689463
126.0,0.32690911734418665,0.33265851743529995,-0.002876147340424351,0.0017679363213280353,9.576973780650802e-30,0.33376672845439626,7.418540353218766e-66,0.3355346647757243
126.5,0.3184271246086646,0.3241765246997779,-0.0032998006506098077,0.0024386168976084643,1.4045658488930214e-28,0.3250377084527793,2.145088424500284e-64,0.32747632535038773
127.0,0.31076861289610247,0.31651801298721577,-0.0030782996049431577,0.003321771789692648,1.9055460452048667e-27,0.31627454080246625,5.809949081092376e-63,0.3195963125921589
127.5,0.3038958540866746,0.3096452541777879,-0.0023234830360051584,0.004469514726268569,2.3952304246694408e-26,0.3074992224875245,1.4758150625422283e-61,0.31196873721379303
128.0,0.2969559061861278,0.3027053062772411,-0.001969078893346188,0.005941934221534434,2.793813446257536e-25,0.2987324509490529,3.5200167934972445e-60,0.3046743851705873
128.5,0.2910546660367778,0.2968040661278911,-0.0009965153708735852,0.0078069642150268275,3.02849355644863e-24,0.2899936172837379,7.892603796472495e-59,0.2978005814987647
129.0,0.2858756534755506,0.2916250535666639,0.00018440898284116658,0.010139836478556848,3.0554661227512904e-23,0.28130080810526586,1.665548881423731e-57,0.29144064458382274
129.5,0.281144328857629,0.2868937289487423,0.0012008666763860254,0.013022047027936532,2.873281446808438e-22,0.2726708152444198,3.3116478472781246e-56,0.2856928622723563
130.0,0.27672262702649875,0.28247202711761205,0.0018130879365656494,0.016539786702437425,2.5219895860483057e-21,0.26411915247860895,6.210956001465442e-55,0.2806589391810464
130.5,0.27350026669340516,0.27924966678451846,0.002807776984188215,0.020781811297027983,2.069064183067087e-20,0.25566007850330225,1.099937690350489e-53,0.27644188980033024
131.0,0.270850153235381,0.2765995533264943,0.0034561696360604355,0.02583675830519217,1.5887597629065782e-19,0.24730662538524165,1.8413273749558773e-52,0.27314338369043384
131.5,0.2690995244859769,0.2748489245770902,0.00398833893138778,0.031789953876362895,1.1433294107126746e-18,0.23907063176933951,2.9167258811701e-51,0.2708605856457024
132.0,0.2683246315834846,0.2740740316745979,0.004391458765058476,0.038719792762617236,7.721047418341616e-18,0.23096278014692218,4.376237991623274e-50,0.2696825729095394
132.5,0.26836447085151927,0.27411387094263256,0.004427420368307622,0.04669381304280671,4.899180585573439e-17,0.2229926375315182,6.225537651904211e-49,0.26968645057432494
133.0,0.2691679378687514,0.27491733795986467,0.003984015864685164,0.055764623166201524,2.92450181052937e-16,0.2151686989289777,8.405129433398026e-48,0.2709333220951795
133.5,0.2711377410345516,0.2768871411256649,0.0034228399009858523,0.06596586819407087,1.6443294440537928e-15,0.20749843303060655,1.0779927850841517e-46,0.2734643012246791
134.0,0.2743963138615676,0.2801457139526809,0.0028489422352352967,0.07730844211688268,8.718670391375304e-15,0.19998832960055424,1.314604202847015e-45,0.2772967717174456
134.5,0.2781900607377392,0.2839394608288525,0.0015183513603521104,0.08977716139706017,4.364566957181133e-14,0.1926439480713966,1.5257290311067847e-44,0.2824211094685004
135.0,0.284080460659564,0.2898298607506773,0.0010317840173251769,0.10332810982898595,2.065169882142174e-13,0.18546996690415962,1.6867489893729407e-43,0.2887980767333521
135.5,0.29066708747274483,0.29641648756385813,5.940845788654503e-05,0.11788684579444818,9.246510982304094e-13,0.17847023331059875,1.7778441337427742e-42,0.2963570791059716
136.0,0.29897603143395257,0.30472543152506587,-0.0002700119378789556,0.13334763048307036,3.921759999353476e-12,0.17164781297595272,1.7880468169770511e-41,0.3049954434629448
136.5,0.3084807758871069,0.31423017597822017,-0.0003486546901663723,0.14957379119321054,1.577352266309449e-11,0.1650050394594025,1.7173955453354411e-40,0.31457883066838654
137.0,0.31918403269857937,0.32493343278969267,-9.410228657469322e-06,0.16639927997128767,6.022471139321415e-11,0.15854356298683775,1.576612351387662e-39,0.32494284301835014
137.5,0.3308248436422844,0.3365742437333977,0.0006784172002198829,0.1836314279286102,2.185060099927467e-10,0.15226439838606162,1.3844981350318259e-38,0.33589582653317784
138.0,0.3429414019365053,0.3486908020276186,0.0014679958557876072,0.2010548334695744,7.54101235278625e-10,0.14616797194815534,1.1638992022452122e-37,0.347222806171831
138.2,0.34582788819355426,0.35157728828466756,-0.00022924786768330208,0.20802597577718343,1.2207580337038513e-09,0.1437805591544094,2.694856057549615e-37,0.35180653615235086
138.4,0.3508263345938949,0.3565757346850082,0.00017840546589248385,0.21497498626067968,1.9608711152056166e-09,0.14142234099756495,6.197259181165454e-37,0.3563973292191157
138.6,0.355582659388489,0.3613320594796023,0.0003527166679725968,0.22188606491914328,3.1254651451842377e-09,0.13909327476702124,1.4155612019914298e-36,0.3609793428116297
138.8,0.35991643923235966,0.36566583932347296,0.0001292988317374011,0.22874322968118338,4.9437082665643116e-09,0.13679330586684393,3.211762319137584e-36,0.36553654049173556
139.0,0.3644755499439677,0.370224950035081,0.00017218993131934424,0.2355303840989313,7.760501074386368e-09,0.13452236824432925,7.238766826472105e-36,0.37005276010376165
139.2,0.3690823261025988,0.3748317261937121,0.000319942977251797,0.24223138631402963,1.2090699244125423e-08,0.1322803848117314,1.6207377094723924e-35,0.3745117832164603
139.4,0.3740575922577218,0.3798069923488351,0.00090958694578952,0.24883011884537318,1.8696639530010044e-08,0.13006726786103284,3.605024349865152e-35,0.37889740540304556
139.6,0.37838747176422416,0.38413687185533746,0.0009433649434908431,0.2553105587422101,2.8698005526170373e-08,0.12788291947163097,7.966566346310068e-35,0.3831935069118466
139.8,0.38221870705795824,0.38796810714907154,0.0005839838680339882,0.2616568476440571,4.372614867721954e-08,0.12572723191083177,1.749128409828274e-34,0.38738412328103755
140.0,0.38577935144493414,0.39152875153604744,7.523607931125831e-05,0.2678533612907285,6.613893698406816e-08,0.12360008802707066,3.815747467643324e-34,0.3914535154567362
140.2,0.38942813196737475,0.39517753205848805,-0.00020870692624308518,0.2738847780317408,9.931722471050454e-08,0.12150136163576558,8.271126917052654e-34,0.39538623898473113
140.4,0.3931707358608462,0.3989201359519595,-0.0002470759101364517,0.279736145894026,1.4807032362502146e-07,0.11943091789774635,1.7815435083010513e-33,0.39916721186209597
140.6,0.3962407598735981,0.4019901599647114,-0.0007916206915175028,0.28539294778040636,2.1918562139407405e-07,0.11738861369020114,3.813241160754052e-33,0.4027817806562289
140.8,0.39906690129859057,0.40481630138970387,-0.0013994831356465842,0.2908411643883165,3.2216694465577144e-07,0.11537429797008929,8.11105697788467e-33,0.40621578452535045
141.0,0.40224139258254016,0.40799079267365346,-0.0014648241324831113,0.29606733445854483,4.702175930875576e-07,0.11338781212999866,1.714608886891392e-32,0.40945561680613657
141.2,0.40487345921063217,0.41062285930174547,-0.0018654245692444338,0.3010586119872555,6.81537325494984e-07,0.11142899034640893,3.602268439947611e-32,0.4124882838709899
141.4,0.407478093396163,0.4132274934872763,-0.0020739675118063294,0.30580282006068216,9.8101803949996e-07,0.10949765992036094,7.521929482582663e-32,0.4153014609990826
141.6,0.4098935348747186,0.4156429349658319,-0.002240610085757877,0.31028850100064304,1.4024404291820633e-06,0.10759364161051756,1.5611451081099047e-31,0.41788354505158976
141.8,0.41251560136931376,0.41826500146042705,-0.001958702331412321,0.3145049625398545,1.9912933626426424e-06,0.10571674995862221,3.220598748370751e-31,0.4202237037918394
142.0,0.4138348623776324,0.4195842624687457,-0.0027276592760846485,0.31844231977872184,2.8083587377687737e-06,0.10386679360737072,6.604313125830706e-31,0.42231192174483034
142.2,0.4167640255593716,0.4225134256504849,-0.001625616896252291,0.3220915327094692,3.934226556671608e-06,0.10204357561071134,1.3462775177708804e-30,0.4241390425467372
142.4,0.41741800405773616,0.42316740414884946,-0.0025294036435503098,0.3254444391287636,5.474927030002442e-06,0.10024689373660615,2.7281955815801045e-30,0.42569680779239977
142.6,0.4192446906734108,0.4249940907645241,-0.001983801681309183,0.3284937827960717,7.568887475714161e-06,0.09847654076228583,5.496273145348369e-30,0.4269778924458333
142.8,0.42029183059231146,0.42604123068342475,-0.0019347062501387513,0.3312332367314831,1.0395440043224025e-05,0.0967323047620372,1.1008567243578249e-29,0.4279759369335635
143.0,0.4207792018332205,0.4265286019243338,-0.002156974166439507,0.33365742158327555,1.4185119919572325e-05,0.09501396938757817,2.1922022837625695e-29,0.4286855760907733
143.2,0.4222155285913789,0.4279649286824922,-0.0011375364907109664,0.33576191903181635,1.923200032209145e-05,0.09332131414106473,4.3404553889310486e-29,0.42910246517320316
143.4,0.4229910179100943,0.4287404180012076,-0.00048288517920858087,0.3375432802320554,2.590830756108249e-05,0.09165411464079971,8.54500235496795e-29,0.4292233031804162
143.6,0.42231118358566094,0.42806058367677424,-0.0009852700783927748,0.3389990293316815,3.4681543785008866e-05,0.09001214287970052,1.6727403532169226e-28,0.429045853755167
143.8,0.42254755186712584,0.42829695195823914,-0.0002720119674848309,0.340127662135595,4.613431353356511e-05,0.08839516747659545,3.256127806020809e-28,0.42856896392572397
144.0,0.42140022079113526,0.42714962088224856,-0.0006429600573737426,0.34092864001947193,6.098699971963662e-05,0.08680295392043075,6.303008392602997e-28,0.4277925809396223
144.2,0.4209447676849703,0.4266941677760836,-2.359961911718722e-05,0.3414023792256441,8.012336210104387e-05,0.08523526480745562,1.2133461064373663e-27,0.4267177673952008
144.4,0.4192141921476692,0.4249635922387825,-0.00038312256974060155,0.34155023570299325,0.00010461903405232809,0.08369186007147751,2.3228897545731582e-27,0.4253467148085231
144.6,0.41783243236704853,0.42358183245816183,-0.00010092319762811108,0.3413744856789647,0.0001357727695580565,0.08217249720726717,4.422788360158113e-27,0.42368275565578994
144.8,0.41618132963463833,0.42193072972575163,0.00020035592177647388,0.3408783021758998,0.0001751401408709916,0.08067693148720434,8.375366695370038e-27,0.42173037380397516
145.0,0.41402639326180896,0.41977579335292226,0.0002805802674886726,0.3400657277055907,0.00022456920858157753,0.07920491617126127,1.5774948164469014e-26,0.4194952130854336
145.2,0.4116839827982544,0.4174333828893677,0.00044929930188186695,0.338941643395136,0.00028623748193956817,0.07775620271041025,2.955321182914079e-26,0.41698408358748584
145.4,0.4094742767570005,0.4152236768481138,0.0010187118286990593,0.3375117348137671,0.00036268926208624905,0.07633054094356131,5.507191032806467e-26,0.41420496501941473
145.6,0.4068733356151844,0.4126227357062977,0.0014557294134334708,0.33578245478425783,0.00045687222047924547,0.07492767928812714,1.0208460547705931e-25,0.41116700629286423
145.8,0.40340883312821896,0.40915823321933226,0.0012777130036193407,0.333760983473815,0.0005721718175835166,0.07354736492431442,1.8823954009624734e-25,0.4078805202157129
146.0,0.3995693517402376,0.4053187518313509,0.0009617798665955135,0.33145518606798596,0.0007124419235175657,0.07218934397325188,3.453008455218675e-25,0.4043569719647554
146.2,0.39637109620204886,0.40212049629316216,0.0015115365113870238,0.3288735683371207,0.0008820297755984507,0.07085336166905597,6.301387763922769e-25,0.40060895978177513
146.4,0.39265320433255135,0.39840260442366465,0.0017524182780737085,0.3260252304083642,0.001085793212286922,0.06953916252493986,1.1440421057636078e-24,0.39665018614559094
146.6,0.3880109964908318,0.3937603965819451,0.0012649790564102648,0.3229198190571312,0.0013291079749205722,0.06824649049348311,2.0664761559570736e-24,0.39249541752553485
146.8,0.38319985451254446,0.38894925460365776,0.0007888238674099712,0.3195674788305297,0.001617862784560893,0.06697508912115717,3.7137836850663634e-24,0.3881604307362478
147.0,0.3797529644782244,0.3855023645693377,0.0018404206627514186,0.31597880231153874,0.001958439897815985,0.06572470169723157,6.640728698477533e-24,0.38366194390658626
147.2,0.37415012181726726,0.37989952190838056,0.0008819917463370186,0.3121647798268265,0.0023576789380575147,0.06449507139715954,1.1815246793849847e-23,0.37901753016204354
147.4,0.3693812592485925,0.3751306593397058,0.0008851470256927563,0.30813674889327797,0.0028228220001726557,0.06328594142056246,2.0917639113104064e-23,0.37424551231401304
147.6,0.3645173143751986,0.3702667144663119,0.0009018773061585383,0.3039063436885686,0.0033614383476626313,0.062097055123922086,3.68502223668645e-23,0.36936483716015334
147.8,0.3586208567372974,0.3643702568284107,-2.4671605180437428e-05,0.2994854448197296,0.003981327465772095,0.06092815614808941,6.460108252843375e-23,0.3643949284335911
148.0,0.354087460397247,0.3598368604883603,0.0004813424937042954,0.29488612965079675,0.004690399803130481,0.05977898854072875,1.1270060824205357e-22,0.359355517994656
148.2,0.3485940018685522,0.3543434019596655,7.694642901162618e-05,0.29012062343636447,0.005496535220488138,0.05864929687380128,1.9566535778275038e-22,0.3542664555306539
148.4,0.34340662173150904,0.34915602182262234,8.52401891215937e-06,0.2852012514925634,0.006407419954940308,0.05753882635620645,3.3807819878642057e-22,0.3491474978037102
148.6,0.33864573581881785,0.34439513590993115,0.000377056566784717,0.2801403926206101,0.007430363780846966,0.05644732294168941,5.8136669818315155e-22,0.34401807934314643
148.8,0.33367307770116467,0.33942247779227797,0.0005254104024410289,0.2749504339809727,0.008572099976741715,0.05537453343212253,9.950089938488876e-22,0.33889706738983694
149.0,0.32854731093855016,0.33429671102966346,0.000494206198077829,0.2696437275985276,0.009838571656779092,0.054320205576278924,1.694968905318692e-21,0.33380250483158563
149.2,0.32389786893839473,0.329647269029508,0.0008959232481127177,0.26423254866086426,0.011234708956331795,0.053284088164199245,2.8738773889499845e-21,0.3287513457813953
149.4,0.319442573277928,0.3251919733690413,0.0014327840672555547,0.25872905575355615,0.012764202430962759,0.052265931117266864,4.8502072818174404e-21,0.32375918930178577
149.6,0.3149592847991103,0.3207086848902236,0.0018686673673645737,0.2531452531576674,0.014429278791094123,0.05126548557409749,8.148011168980272e-21,0.318840017522859
149.8,0.3102082851697516,0.3159576852608649,0.0019517402657886485,0.24749295531630194,0.01623048570642565,0.05028250397234863,1.362560422816005e-20,0.3140059449950762
150.0,0.3048620511183322,0.3106114512094455,0.0013444646917424863,0.2417837535587675,0.018166492832377132,0.04931674012655843,2.2682255937242584e-20,0.309266986517703
150.5,0.2947610392888327,0.300510439379946,0.0026302709105367472,0.2273354933381144,0.02356861924808608,0.046976055883208724,7.95179490308276e-20,0.29788016846940923
151.0,0.28333219436883667,0.28908159445994996,0.001902112565059233,0.21277056637805145,0.0296712393813823,0.04473767613545696,2.711429652489276e-19,0.28717948189489073
151.5,0.2717580621277458,0.2775074622188591,0.0003967923228354042,0.19824453787694268,0.03626824664262092,0.042597885376460067,8.996804708393994e-19,0.2771106698960237
152.0,0.2610768874558081,0.2668262875469214,-0.0006924097394209738,0.18389785762947514,0.04306780060256931,0.04055303905429794,2.9062555717596523e-18,0.26751869728634237
152.5,0.2507810956463764,0.2565304957374897,-0.0016350368536970916,0.16985465147876552,0.04971131289809956,0.03859956821432167,9.143868423934138e-18,0.2581655325911868
153.0,0.2410022529041146,0.2467516529952279,-0.002009066709700247,0.15622205379204107,0.05580468248744236,0.03673398342544468,2.803291679811933e-17,0.24876071970492813
153.5,0.23087760612873337,0.23662700621984667,-0.0023739170859521652,0.14309003284490288,0.06095801241570388,0.03495287804519197,8.37793018484544e-17,0.23900092330579883
154.0,0.22047687727878823,0.22622627736990153,-0.002386375103633015,0.13053165069401174,0.06482807090360486,0.03325293087591767,2.441854816729568e-16,0.22861265247353454
154.5,0.20955064589019412,0.21530004598130742,-0.002091440900494679,0.1186036925778902,0.06715688604176934,0.03163090826214184,6.943824558148811e-16,0.2173914868818021
155.0,0.19799580237031245,0.20374520246142575,-0.0014864004123808783,0.10734759780974225,0.06780033938758352,0.03008366567647894,1.9273086757995074e-15,0.20523160287380662
155.5,0.18563400437234784,0.19138340446346114,-0.0007577290013280613,0.09679062409731905,0.06674236052832572,0.028608148839139227,5.2233851274378294e-15,0.1921411334647892
156.0,0.17261418375762283,0.17836358384873613,0.00012209320390002554,0.08694717975130115,0.06409291648001164,0.02720139441350949,1.3828417440769657e-14,0.1782414906448361
156.5,0.15877322752704315,0.16452262761815645,0.0007710011877188061,0.0778202627980714,0.0600708333144577,0.025860530317872762,3.577510321171493e-14,0.16375162643043764
