wavelength,absorbance,absorbance_bk,residual_3gauss
117.0,0.9609665518201971,0.9617448629293814,-0.0035085491510723488
117.5,0.9585844539556752,0.9593627650648595,0.0011802668289181417
118.0,0.9472533762772057,0.9480316873863901,-0.0018665077497801441
118.5,0.9386312083596051,0.9394095194687895,-0.0010563356333916918
119.0,0.9271528160679201,0.9279311271771045,-0.0020221233550886675
119.5,0.9178566506464021,0.9186349617555865,0.00020477323807643888
120.0,0.9041623111422867,0.9049406222514711,-0.0010275870907560103
120.5,0.895070145922932,0.8958484570321164,0.0032080679231020204
121.0,0.878881225733858,0.8796595368430423,0.0011382681946576767
121.5,0.865507837567835,0.8662861486770194,0.002599216678150773
122.0,0.8483722028714568,0.8491505139806411,0.0009352564709190769
122.5,0.8305460716557386,0.8313243827649229,-0.0008619795831534827
123.0,0.8134149219813255,0.8141932330905098,-0.0014900230981391704
123.5,0.7961882274837171,0.7969665385929015,-0.0018261728841048042
124.0,0.7775220319467827,0.7783003430559671,-0.0033060023375985903
124.5,0.7587854313687027,0.759563742477887,-0.004658149810303214
125.0,0.7400463007010736,0.7408246118102579,-0.005920013276447644
125.5,0.7226618155038702,0.7234401266130546,-0.005848734064018535
126.0,0.704425518812243,0.7052038299214274,-0.006775628903766595
126.5,0.6883293196222403,0.6891076307314247,-0.005845567864757317
127.0,0.6727640302118041,0.6735423413209884,-0.004817551621427052
127.5,0.6583637413291171,0.6591420524383015,-0.003221031389592177
128.0,0.6447286186837158,0.6455069297929001,-0.0016332201243414168
128.5,0.6329551062364777,0.633733417345662,0.0008517580755024179
129.0,0.6218447689133957,0.62262308002258,0.0028332670308339747
129.5,0.6125979073689468,0.6133762184781312,0.0053003645390443666
130.0,0.6041379810463038,0.6049162921554881,0.006959934347431251
130.5,0.5970231585976401,0.5978014697068245,0.008153088392137242
131.0,0.5927031584321091,0.5934814695412934,0.01011795816044081
131.5,0.5893801341197031,0.5901584452288875,0.010857508780573788
132.0,0.587784123031644,0.5885624341408283,0.010922692883480689
132.5,0.5884687756722425,0.5892470867814269,0.010716383058607781
133.0,0.5911176471968291,0.5918959583060135,0.009808017719459383
133.5,0.5959414004533896,0.596719711562574,0.008338910442451941
134.0,0.6032724200337021,0.6040507311428864,0.006624291324558662
134.5,0.6120814126708071,0.6128597237799914,0.0036762182209149064
135.0,0.6252484051147181,0.6260267162239025,0.0024793525778036285
135.5,0.6394559045564807,0.6402342156656651,-0.00011300242102119107
136.0,0.6575137654080928,0.6582920765172772,-0.001053349644066448
136.5,0.6775487279073928,0.6783270390165772,-0.0019121606885194042
137.0,0.7008154505713192,0.7015937616805036,-0.0010710115983726398
137.5,0.7256006392281248,0.7263789503373091,0.00017495462164029973
138.0,0.7509059605117961,0.7516842716209805,0.0012910952307101375
138.2,0.7597514968878807,0.760529807997065,0.00038972468475906297
138.4,0.76955853611757,0.7703368472267543,0.00045843514217935866
138.6,0.7800183643042693,0.7807966754134537,0.001222028809071296
138.8,0.789560393716488,0.7903387048256724,0.0011437335195326748
139.0,0.798844924224499,0.7996232353336834,0.0009178213325303775
139.2,0.8080062281768302,0.8087845392860146,0.0007125486315645579
139.4,0.8179003482959325,0.8186786594051169,0.0014178082173069706
139.6,0.8265767113822333,0.8273550224914177,0.0011165970937472292
139.8,0.8354668760605377,0.8362451871697221,0.0012736190839381933
140.0,0.843265783197133,0.8440440943063173,0.0006163917866292001
140.2,0.8504694060347429,0.8512477171439272,-0.0003272442257840069
140.4,0.8580178513023213,0.8587961624115057,-0.0005861618976064076
140.6,0.864486975043751,0.8652652861529354,-0.001554465361609192
140.8,0.8700947292113891,0.8708730403205734,-0.0029852720445898706
141.0,0.8763773033532318,0.8771556144624162,-0.0033146942477659813
141.2,0.8816180765197613,0.8823963876289457,-0.004233004527616435
141.4,0.8859672239885008,0.8867455350976852,-0.005565139822176435
141.6,0.8911397759771476,0.8919180870863319,-0.005572746795396544
141.8,0.895902785969903,0.8966810970790874,-0.005467110526463537
142.0,0.8992020985203489,0.8999804096295333,-0.006282476546427329
142.2,0.9037876712230608,0.9045659823322452,-0.0052508115136906675
142.4,0.9064371674466111,0.9072154785557954,-0.005578286038466662
142.6,0.909622737572081,0.9104010486812654,-0.004778562131283248
142.8,0.9116650249678137,0.912443336076998,-0.0045188493733824275
143.0,0.9132984038402077,0.914076714949392,-0.004054723094928159
143.2,0.9148572489947356,0.91563556010392,-0.0030439050314535754
143.4,0.9158235740987177,0.9166018852079021,-0.0019986704255285925
143.6,0.9149742363955305,0.9157525475047149,-0.002138684204266217
143.8,0.9145965234244791,0.9153748345336634,-0.0011754512408909124
144.0,0.9122424133877712,0.9130207244969556,-0.00155808955666914
144.2,0.9109265146090216,0.911704825718206,-0.00027542139819258793
144.4,0.9071535902533449,0.9079319013625292,-0.0008284762219743502
144.6,0.9036774772683202,0.9044557883775045,-0.00047159658885553846
144.8,0.8995175162264304,0.9002958273356148,-0.00019602994516265682
145.0,0.8949812312626039,0.8957595423717882,0.0002927336117102275
145.2,0.8898344931212293,0.8906128042304137,0.0007451117288095332
145.4,0.8849508787386419,0.8857291898478262,0.002016783379582665
145.6,0.8788722599512703,0.8796505710604546,0.00262928032085441
145.8,0.8716002424559569,0.8723785535651413,0.0025614401592563008
146.0,0.8646552156938855,0.8654335268030698,0.0033084848014858226
146.2,0.85644461927554,0.8572229303847244,0.003250333459820287
146.4,0.8485321403977093,0.8493104515068937,0.003920868591772764
146.6,0.8393074916813411,0.8400858027905255,0.0036778083916840787
146.8,0.8298456969163995,0.8306240080255839,0.0035621176217395245
147.0,0.8202368439489677,0.821015155058152,0.00362792024703551
147.2,0.8093820131526788,0.8101603242618631,0.0027386262589527144
147.4,0.799290810678688,0.8000691217878724,0.002864705294530423
147.6,0.7881947146556445,0.7889730257648289,0.0021973178498374546
147.8,0.7760835262931347,0.7768618374023191,0.000685097615439556
148.0,0.7655898387963502,0.7663681499055346,0.0009189981056987317
148.2,0.7543659985438397,0.755144309653024,0.000509676749387622
148.4,0.7434560495996394,0.7442343607088238,0.0004599044778879069
148.6,0.733432342421744,0.7342106535309284,0.001301676736823243
148.8,0.7233110814437945,0.7240893925529789,0.0020122936758951715
149.0,0.7132570556648842,0.7140353667740685,0.0027196447375630317
149.2,0.7036015430699942,0.7043798541791786,0.003720677643591852
149.4,0.694133387062166,0.6949116981713503,0.004773037405384151
149.6,0.6841297071066129,0.6849080182157973,0.005126323546598921
149.8,0.6742199973983835,0.6749983085075678,0.00538670425043708
150.0,0.6639208978357478,0.6646992089449322,0.005052155981796536
150.5,0.6404562128050125,0.6412345239141969,0.0055237397415413
151.0,0.6155363428771774,0.6163146539863618,0.003124531916889328
151.5,0.5908257518779421,0.5916040629871264,-0.0003198043902141734
152.0,0.5672114614694781,0.5679897725786625,-0.003552950187311943
152.5,0.5450833956390568,0.5458617067482412,-0.00565130644660683
153.0,0.5243568580160721,0.5251351691252565,-0.006071292509053694
153.5,0.5030695897040429,0.5038479008132273,-0.006138965322276535
154.0,0.48097484910332183,0.4817531602125062,-0.005547521983456261
154.5,0.45699584327718856,0.4577741543863729,-0.004983044812494564
155.0,0.4323980391398425,0.43317635024902684,-0.0030092629001854942
155.5,0.40549003256596294,0.4062683436751473,-0.0013921517570301134
156.0,0.3776863230167935,0.37846463412597786,0.0009716846109892874
156.5,0.3489777745002832,0.3497560856094676,0.0035652951253073994
157.0,0.31983063814802326,0.3206089492572076,0.006212894023285898
157.5,0.291495654366485,0.29227396547566936,0.009462867559724752
158.0,0.2613327742624859,0.26211108537167027,0.009986025211206673
158.5,0.2314180090614273,0.23219632017061162,0.009245482329687249
159.0,0.20241845400012848,0.2031967651093128,0.007417303068212977
159.5,0.17463474098425508,0.1754130520934394,0.004458092767275101
160.0,0.14787520498164927,0.1486535160908336,-1.5599455523596095e-05
160.5,0.12380773790964573,0.12458604901883008,-0.004386729033103692
161.0,0.10237696711075968,0.10315527821994402,-0.008643438588188362
161.5,0.08350201853305649,0.08428032964224083,-0.012710306022425302
162.0,0.06705126674260804,0.06782957785179239,-0.01650387694875903
162.5,0.0535102817533232,0.05428859286250755,-0.01929253035441779
163.0,0.04197559357339797,0.04275390468258231,-0.02172569452869099
163.5,0.03295864854843227,0.03373695965761662,-0.023046994758266548
164.0,0.025757279956162525,0.02653559106534687,-0.023734024982539778
164.5,0.02007093018950129,0.020849241298685636,-0.023889234471411037
165.0,0.014830345512817363,0.015608656622001707,-0.024412308856995482
165.5,0.011476327548644196,0.01225463865782854,-0.023720653336608083
166.0,0.008233218816785027,0.009011529925969371,-0.0234733912435969
166.5,0.006452497432516704,0.007230808541701048,-0.022224385909501897
167.0,0.004801949566149934,0.005580260675334278,-0.02122945792187269
167.5,0.003092243873893672,0.003870554983078016,-0.020616385935039037
168.0,0.001468349515629473,0.002246660624813817,-0.02019047430955293
168.5,0.0010462574828425835,0.0018245685920269276,-0.018795315491547473
169.0,0.0007900627899949693,0.0015683738991793135,-0.017433687827412038
169.5,0.000775104706123224,0.0015534158153075683,-0.01600283977431766
170.0,0.0007676408261522747,0.0015459519353366188,-0.014713611341998044
170.5,0.0005775381245043314,0.0013558492336886755,-0.01373683329835336
171.0,-0.00011147423677375828,0.0006668368724105859,-0.013372390497192778
171.5,-0.0002738653386832749,0.0005044457705010693,-0.012580767511475667
172.0,-0.0003830484911923332,0.00039526261799201093,-0.01182340504784975
172.5,-0.00041608660379930686,0.0003622245053850373,-0.01106710896890455
173.0,-0.0003499017399136896,0.0004284093692706545,-0.01028003451994382
173.5,-0.00014373726299145997,0.0006345738461928841,-0.009413979508072837
174.0,-0.0007783111091843441,0.0,-0.009443415715279338
174.5,-7.167416159183081e-05,0.0007066369475925133,-0.008181266784554102
175.0,-0.00014456405812159352,0.0006337470510627506,-0.007744219046576414
175.5,4.216941138415496e-05,0.0008204805205684991,-0.007090138001644912
176.0,0.00015118897364886137,0.0009295000828332056,-0.006554464492763286
176.5,0.0007339428372903489,0.0015122539464746932,-0.005584986022961475
177.0,0.001162290270616365,0.0019406013798007092,-0.004810269644033342
177.5,0.0013929365883892954,0.0021712476975736398,-0.004275286791917337
178.0,0.001740271188337499,0.002518582297521843,-0.003668619843173837
178.5,0.002203737886658976,0.0029820489958433203,-0.002995101208954018
179.0,0.002787801907408127,0.003566113016592471,-0.002255798446790563
179.5,0.0035268753803634114,0.0043051864895477555,-0.0014229610219904593
180.0,0.003419658546818704,0.004197969656003048,-0.001505451242609323
180.5,0.004312650561158482,0.005090961670342826,-0.0006648905382194564
181.0,0.0050710828401924635,0.005849393949376808,-4.426180013161144e-05
181.5,0.005322637702677228,0.006100948811861572,-2.361032767178497e-05
182.0,0.006041858139945588,0.006820169249129932,0.00036504333864116525
182.5,0.006610826955548065,0.0073891380647324095,0.0004991230581667012
183.0,0.0070874112479669136,0.007865722357151259,0.00043449733411318574
183.5,0.008105865806515199,0.008884176915699543,0.0008067946304637658
184.0,0.008537766244298618,0.009316077353482962,0.000492938835070832
184.5,0.009974330233531392,0.010752641342715736,0.0010938969959829112
185.0,0.010873239281805254,0.011651550390989598,0.001081692154122342
185.5,0.011816587496181807,0.012594898605366152,0.0010572619550777308
186.0,0.012365516181354104,0.013143827290538448,0.0006046963822127042
186.5,0.01274210355749858,0.013520414666682924,-2.757666949338919e-05
187.0,0.01359411710654473,0.014372428215729075,-0.00016302389247958675
187.5,0.01423630904637814,0.015014620155562484,-0.00045692363005213864
188.0,0.01558153432982264,0.016359845439006985,3.338763096083497e-05
188.5,0.01618564766994536,0.016963958779129706,-0.00010801205298828498
189.0,0.016684164174833458,0.0174624752840178,-0.0002203534829536384
189.5,0.016782200596575897,0.017560511705760243,-0.000577479938794187
190.0,0.016664235986018912,0.017442547095203258,-0.0009791038959417568
190.5,0.01687488439952796,0.017653195508712305,-0.0008707544693993298
191.0,0.016221561472867588,0.016999872582051934,-0.0014414886828932813
191.5,0.01720405605670407,0.017982367165888413,-0.00019433826741258042
192.0,0.017423519675044085,0.018201830784228427,0.00046300946843663704
192.5,0.01652591247278542,0.017304223581969765,0.00016229805483495077
193.0,0.016333636303435223,0.017111947412619566,0.0007072276843682751
193.5,0.016035252781743437,0.01681356389092778,0.001264244986667806
194.0,0.015041617996159716,0.01581992910534406,0.0012198477563985077
194.5,0.013945069152238363,0.014723380261422708,0.0011409591600300747
195.0,0.012031213425614206,0.01280952453479855,0.00028784752015012516
195.5,0.010436246563428621,0.011214557672612965,-0.00022754310809878532
196.0,0.009504637247317772,0.010282948356502116,-8.30624332218595e-05
196.5,0.00818923167985051,0.008967542789034853,-0.000345598708871438
197.0,0.0072029597614111165,0.00798127087059546,-0.00031892989986916954
197.5,0.0057012094532207765,0.006479520562405121,-0.0008611113851509505
198.0,0.0048471435496993485,0.005625454658883693,-0.0008191096157393407
198.5,0.004163875422978328,0.004942186532162672,-0.0006767390028186767
199.0,0.0033687217880294935,0.004147032897213838,-0.0007206515910617309
199.5,0.0024913905727692543,0.0032697016819535985,-0.0009224862606141268
200.0,0.002579308213264959,0.003357619322449303,-0.00023393824247707785
200.5,0.001746146370056016,0.00252445747924036,-0.0005386567836086109
201.0,0.001816375494468374,0.0025946866036527182,-8.11584227847521e-06
201.5,0.0015238471075578,0.002302158216742144,9.656622323085326e-05
202.0,0.0012611410959178036,0.0020394522051021477,0.00017361054530517432
202.5,0.0009614651031518456,0.0017397762123361896,0.00016216280995903147
203.0,0.001275459341585911,0.0020537704507702552,0.0007188381337505079
203.5,0.0016468479900348836,0.002425159099219228,0.0012931678629652785
204.0,0.001439846710779304,0.0022181578199636483,0.0012548553520729156
204.5,0.0018128619414750735,0.0025911730506594176,0.0017673714605849636
205.0,0.001564540297243762,0.0023428514064281064,0.0016339416617640887
205.5,0.0014551007907537567,0.002233411899938101,0.0016188502985337977
206.0,0.001801594857040396,0.0025799059662247404,0.002042699712130383
206.5,0.0019048005194045913,0.0026831116285889354,0.002209323709092529
207.0,0.0017539300228454765,0.0025322411320298204,0.002110528535942247
207.5,0.001558197378497837,0.0023365084876821813,0.001957702546829476
208.0,0.0018410360721142288,0.0026193471812985727,0.0022760805298359856
208.5,0.0018126195153828615,0.0025909306245672056,0.0022773119398366353
209.0,0.0014830964224824405,0.0022614075316667844,0.0019727427713104643
209.5,0.001459211986499112,0.002237523095683456,0.0019700802671718245
210.0,0.0018588245170225903,0.0026371356262069345,0.0023879490877808888
210.5,0.001683587744450652,0.002461898853634996,0.0022286086179627725
211.0,0.0018308164157100869,0.002609127524894431,0.002389848894059954
211.5,0.0011121238483989915,0.0018904349575833356,0.001683653949929577
212.0,0.0017594921847984425,0.002537803293982787,0.002342293636760254
212.5,0.0012472498926403247,0.002025561001824669,0.0018403188837513489
213.0,0.0009504266886618176,0.0017287377978461617,0.0015529310452865417
213.5,0.0012463697406014413,0.002024680849785785,0.0018576096676853721
214.0,0.0012495036518923887,0.002027814761076733,0.0018688816367000323
214.5,0.001318098477034464,0.0020964095862188083,0.001945096372496202
215.0,0.0012724590996859623,0.0020507702088703064,0.0019066207753627694
215.5,0.0014274548199271664,0.0022057659291115105,0.0020683730888750957
216.0,0.0016848791145616868,0.002463190223746031,0.002332185914495069
216.5,0.001493913552930472,0.002272224662114816,0.0021472725834626536
217.0,0.001987738443737128,0.002766049552921472,0.002646839643027539
217.5,0.0019191525145356488,0.002697463623719993,0.0025837079039438813
218.0,0.0019732011130965737,0.002751512222280918,0.002642941653052155
218.5,0.0018054030920365604,0.0025837142012209045,0.0024800762815810995
219.0,0.001654925835056938,0.002433236944241282,0.00233429385618267
219.5,0.0018552569323207688,0.002633568041505113,0.0025390951924723192
220.0,0.0013207446967714964,0.0020990558059558405,0.002008840662208844
