wavelength,absorbance,absorbance_bk,residual_3gauss
117.0,0.16746902479594905,0.16351646155813626,-0.002504366700762123
117.5,0.1678496338547354,0.1638970706169226,-0.0009256489440230276
118.0,0.1667125966026184,0.1627600333648056,-0.0006553936600422194
118.5,0.16359034118367885,0.15963777794586606,-0.0021723419813389766
119.0,0.16417383103788943,0.16022126780007664,0.0002028841404380366
119.5,0.16256173715937983,0.15860917392156704,0.0005570228456636961
120.0,0.16087903702985407,0.15692647379204128,0.0010028261946200545
120.5,0.15874202297603934,0.15478945973822655,0.0011441061708837297
121.0,0.1576754867303114,0.1537229234924986,0.002492935724250217
121.5,0.15442904100646107,0.15047647776864828,0.0017859614144922764
122.0,0.15128665700584343,0.14733409376803064,0.001293902169371558
122.5,0.14844819894941852,0.14449563571160573,0.001203010999054177
123.0,0.14579137702211264,0.14183881378429986,0.0013769173764925646
123.5,0.14267438326645612,0.13872182002864333,0.0011591122779225915
124.0,0.139276801416312,0.1353242381784992,0.0007136661371868747
124.5,0.13563074269178488,0.1316781794539721,5.6133553314935414e-05
125.0,0.13206612727923328,0.1281135640414205,-0.000501430381688206
125.5,0.1290910711170361,0.12513850787922332,-0.0004703733379544661
126.0,0.12559702822458313,0.12164446498677034,-0.0009806045892718357
126.5,0.12215362820279566,0.11820106496498287,-0.0014860511882881788
127.0,0.11907258840399916,0.11512002516618637,-0.0017010085790692547
127.5,0.11663195219374256,0.11267938895592977,-0.0013761066088747442
128.0,0.1136041261884766,0.1096515629506638,-0.0017703873072312803
128.5,0.1113752791554256,0.10742271591761281,-0.0015318994950476034
129.0,0.10981383736955602,0.10586127413174323,-0.0008290438111524939
129.5,0.10814769844796852,0.10419513521015573,-0.0004730176936962177
130.0,0.10655672409541382,0.10260416085760103,-0.00032477740199088334
130.5,0.10526003479313184,0.10130747155531905,-0.00020698034111892027
131.0,0.10484446292405868,0.10089189968624589,0.00042545114656576677
131.5,0.10426884624533898,0.1003162830075262,0.0004908153226431816
132.0,0.10462628073139116,0.10067371749357837,0.0010442590463783652
132.5,0.10514943819547816,0.10119687495766537,0.0012846125665193914
133.0,0.10535911691281644,0.10140655367500365,0.0007045438662144771
133.5,0.10685778362652916,0.10290522038871637,0.0008857230029352542
134.0,0.10865032378429644,0.10469776054648365,0.0008211359514685018
134.5,0.11021500543533988,0.10626244219752709,-1.2529302836794542e-05
135.0,0.11349032012861476,0.10953775689080197,0.00033315568984360056
135.5,0.11660993189544044,0.11265736865762765,1.4203164369674948e-05
136.0,0.12046462010781156,0.11651205686999877,-4.332558067435266e-05
136.5,0.12501486609149284,0.12106230285368005,0.0001693629551089565
137.0,0.1299144599609483,0.1259618967231355,0.0003670367609223124
137.5,0.13566791852284907,0.13171535528503628,0.0011270171969091913
138.0,0.1409875946644817,0.13703503142666892,0.0012449848827794097
138.2,0.14161154094921283,0.13765897771140004,-0.0002496717427795947
138.4,0.14406843543405845,0.14011587219624566,7.619219470220151e-05
138.6,0.1462823523576542,0.1423297891198414,0.00015302481314352634
138.8,0.14827991504498955,0.14432735180717676,1.394626021961054e-05
139.0,0.15011544973510135,0.14616288649728856,-0.0002801235238094335
139.2,0.1522726595901303,0.14832009635231752,-0.0002388176582727719
139.4,0.1549486563794676,0.1509960931416548,0.00034168186669483736
139.6,0.15688830439748608,0.1529357411596733,0.00021296014402721886
139.8,0.15877900378714468,0.1548264405493319,6.912440819328847e-05
140.0,0.16071119252459878,0.156758629286786,7.277620271584073e-06
140.2,0.16255911414825897,0.15860655091044618,-9.174217240368043e-05
140.4,0.16478033594266156,0.16082777270484877,0.00023612816852081053
140.6,0.1661289210479402,0.1621763578101274,-0.000248678853152301
140.8,0.16758804379864006,0.16363548056082727,-0.0005567733750246884
141.0,0.16912131476895104,0.16516875153113825,-0.000718509852279281
141.2,0.1705021366256007,0.16654957338778792,-0.0009546571794208647
141.4,0.17212901962603225,0.16817645638821946,-0.0008611083115201701
141.6,0.1738571880427881,0.1699046248049753,-0.0005772980112856707
141.8,0.17513760014889176,0.17118503691107897,-0.000647206011352347
142.0,0.17584239939520993,0.17188983615739714,-0.0011939279028521377
142.2,0.17782066886505382,0.17386810562724103,-0.0003639416253983785
142.4,0.17829239272969188,0.1743398294918791,-0.0009331658134548726
142.6,0.18000934390681153,0.17605678066899874,-0.00014609079323069096
142.8,0.18064854093540977,0.17669597769759698,-0.0003223392288477789
143.0,0.18102498172974196,0.17707241849192917,-0.0006439487810973588
143.2,0.18223399975975407,0.17828143652194128,-1.303126779184094e-05
143.4,0.1827425642370079,0.17879000099919512,3.951321061995694e-05
143.6,0.1826115937763268,0.178659030538514,-0.00042370339332686857
143.8,0.18348253466102837,0.17952997142321558,0.0002400088120251831
144.0,0.18315246778969133,0.17919990455187854,-0.0001714868543153114
144.2,0.1838968321534371,0.17994426891562432,0.0006175592869480662
144.4,0.1831751502134192,0.17922258697560642,6.64990447298841e-05
144.6,0.1827323562689856,0.1787797930311728,-8.039388734296105e-05
144.8,0.18293636848484807,0.17898380524703528,0.0005436405825039736
145.0,0.18197819469572543,0.17802563145791264,0.00012794849185102097
145.2,0.18177240353039528,0.1778198402925825,0.0005849281652282046
145.4,0.18122539022568024,0.17727282698786745,0.000818293001587922
145.6,0.1809858128709456,0.1770332496331328,0.001473506798825519
145.8,0.17888983468139627,0.17493727144358348,0.00038302763160860676
146.0,0.17831159399900287,0.17435903076119008,0.0009167824637540956
146.2,0.17698411746927456,0.17303155423146177,0.0008030884829730578
146.4,0.1753330434872965,0.1713804802494837,0.0004623888367039086
146.6,0.17345005708623593,0.16949749384842314,-1.9295442718447742e-05
146.8,0.17194738737892942,0.16799482414111663,-3.58455885463016e-05
147.0,0.17102944639264492,0.16707688315483213,0.000610622123346255
147.2,0.16837261659943428,0.1644200533616215,-0.00041042116154824115
147.4,0.16706704963488567,0.16311448639707288,-1.6076188903063615e-05
147.6,0.16563730901291987,0.16168474577510708,0.00031067650348368114
147.8,0.16277590845909914,0.15882334522128636,-0.0007454280445691464
148.0,0.16150972488549503,0.15755716164768224,-0.00016546149327248405
148.2,0.15924337188483328,0.1552908086470205,-0.0005528564008180636
148.4,0.15740761370540232,0.15345505046758953,-0.0004849127680884302
148.6,0.15544345227578635,0.15149088903797356,-0.0005286250082639221
148.8,0.15335506504667856,0.14940250180886577,-0.0006876524950663598
149.0,0.15175338804296945,0.14780082480515666,-0.00035864049672856835
149.2,0.14959000161082983,0.14563743837301704,-0.0005972354856466355
149.4,0.14820418340857447,0.14425162017076168,-7.093200790730947e-05
149.6,0.14644542897499835,0.14249286573718556,6.354725769683323e-05
149.8,0.14483034512203083,0.14087778188421804,0.0003172413441064059
150.0,0.14246647821205735,0.13851391497424456,-0.00020712948927106845
150.5,0.13979296613880893,0.13584040290099614,0.0015659631962290643
151.0,0.1351439698406784,0.1311914066028656,0.0011212392089396117
151.5,0.13090231849149808,0.1269497552536853,0.0008442016527212548
152.0,0.12683759371662842,0.12288503047881563,0.0005471949662908121
152.5,0.12271651892615491,0.11876395568834212,7.56836801684424e-05
153.0,0.11904160944786218,0.1150890462100494,3.80957070157395e-05
153.5,0.1149372687726395,0.11098470553482671,-0.00032074044564806004
154.0,0.1104395442027578,0.10648698096494501,-0.0008448052893871294
154.5,0.10611360685038428,0.10216104361257149,-0.0008646721853577399
155.0,0.10191580559859093,0.09796324236077814,-0.00034889464188468666
155.5,0.09656019233075584,0.09260762909294305,-0.0005472451132347012
156.0,0.09080634771426288,0.08685378447645009,-0.0007077147599923173
156.5,0.08539950949044339,0.0814469462526306,-0.0001358076795012625
157.0,0.07882386588882598,0.07487130265101319,-0.0004356402325443459
157.5,0.07356350210328384,0.06961093886547105,0.0007605512391494623
158.0,0.06735007216777228,0.06339750892995949,0.001052000164822528
158.5,0.06085339264737729,0.05690082940956451,0.0009725557172609728
159.0,0.05465360055811853,0.050701037320305745,0.0009744161462634585
159.5,0.04922988675006471,0.04527732351225193,0.0014262097557476289
160.0,0.04235310574735938,0.038400542509546595,1.1969221327505497e-05
160.5,0.03743221874455801,0.033479655506745226,8.072448655587622e-05
161.0,0.03278024382143115,0.02882768058361837,-8.738344494322106e-05
161.5,0.028556824316393253,0.02460426107858047,-0.00034079501441431487
162.0,0.024595306502330216,0.020642743264517434,-0.0008333964503256935
162.5,0.02174743390132075,0.017794870663507968,-0.0006846694030718942
163.0,0.018659673989918128,0.014707110752105344,-0.0012084105455854883
163.5,0.016182718923449326,0.012230155685636542,-0.0015079332794200907
164.0,0.014276367184160319,0.010323803946347535,-0.0015751827077848113
164.5,0.012723055372189703,0.008770492134376919,-0.0015803122531959438
165.0,0.011336198902308452,0.007383635664495668,-0.0016655310771355458
165.5,0.010835368220854546,0.006882804983041762,-0.0010712723711127862
166.0,0.009312528567141837,0.005359965329329053,-0.0016705963939534435
166.5,0.008897631143819463,0.004945067906006679,-0.0013037092680973257
167.0,0.008959881475415533,0.005007318237602748,-0.0005764386320231078
167.5,0.007847194458195966,0.0038946312203831813,-0.0011203028598587338
168.0,0.00683831554006783,0.0028857523022550458,-0.0016398106397823176
168.5,0.00676631752198778,0.002813754284174996,-0.0012883655874632348
169.0,0.006486195643408501,0.002533632405595717,-0.001200108065509123
169.5,0.007004488372503223,0.003051925134690439,-0.0003597975879907609
170.0,0.007149447964480806,0.0031968847266680214,6.777535831953632e-05
170.5,0.007224210346225978,0.0032716471084131933,0.00039129685311345896
171.0,0.0064618334035084,0.0025092701656956153,-0.00015176796419299164
171.5,0.006125899106751255,0.002173335868938471,-0.0002943718054676122
172.0,0.005950395259459786,0.0019978320216470016,-0.0002998543189551865
172.5,0.006120666568536548,0.0021681033307237637,1.9117561226440673e-05
173.0,0.006282599096413864,0.0023300358586010794,0.00030981228515744065
173.5,0.006001466351899742,0.002048903114086958,0.0001383366043240066
174.0,0.005799631609260862,0.0018470683714480775,2.738105579714635e-05
174.5,0.005850891899501129,0.001898328661688345,0.0001506000861231536
175.0,0.006700928044157177,0.002748364806344393,0.0010530968723488074
175.5,0.006006081127475456,0.002053517889662672,0.0003902380999125008
176.0,0.005778130061175007,0.0018255668233622228,0.0001724774401816575
176.5,0.005618647744738112,0.001666084506925328,-2.3148331020636861e-07
177.0,0.0058597077118052185,0.0019071444739924342,0.00020234164432732043
177.5,0.005858943900880828,0.001906380663068044,0.00013584835138847262
178.0,0.006168927989044246,0.0022163647512314618,0.00035083833301195137
178.5,0.00627557047556478,0.0023230072377519954,0.00033127395202354505
179.0,0.0068312186030344176,0.0028786553652216332,0.0007277529551557335
179.5,0.006659927269859712,0.002707364032046928,0.0003629117983389965
180.0,0.006425009136591737,0.0024724458987789525,-0.0001008892144370283
180.5,0.007092667342009655,0.003140104104196871,0.0003021984073701802
181.0,0.007798880024334456,0.0038463167865216714,0.0007085173200208155
181.5,0.0076408848882365855,0.0036883216504238012,0.0002164931229617006
182.0,0.007747113716779197,0.0037945504789664124,-4.335111727548583e-05
182.5,0.008381908352905304,0.00442934511509252,0.00019637060227760232
183.0,0.008633151827107475,0.004680588589294691,2.7552100339587465e-05
183.5,0.00873561327614384,0.004783050038331056,-0.00031008571102424023
184.0,0.008756821684134794,0.004804258446322009,-0.0007431878628141294
184.5,0.009676549563452258,0.005723986325639474,-0.00028538915371033053
185.0,0.01037268690926534,0.0064201236714525566,-5.1585772213791e-05
185.5,0.010973837403690907,0.007021274165878123,9.448210566194003e-05
186.0,0.011383270522936405,0.007430707285123621,6.39772171095879e-05
186.5,0.01095687297150698,0.007004309733694196,-0.0007793065259426796
187.0,0.011495085215341008,0.007542521977528223,-0.0006272390600796009
187.5,0.011577048000893314,0.00762448476308053,-0.0008934374198337897
188.0,0.012748430485798136,0.008795867247985352,-2.5655422414323434e-05
188.5,0.013035492187471595,0.00908292894965881,8.08198628811721e-06
189.0,0.013405318960867343,0.009452755723054559,0.00017954836128649537
189.5,0.012966068075187576,0.009013504837374791,-0.0003995687424646899
190.0,0.013711619070137172,0.009759055832324387,0.0002668951565586025
190.5,0.01397011108004126,0.010017547842228476,0.0005080752295031892
191.0,0.013294404828579805,0.00934184159076702,-0.00012345936485354085
191.5,0.013180965424880228,0.009228402187067443,-0.00013277817309854598
192.0,0.013418702026140405,0.009466138788327621,0.0002663343239041483
192.5,0.014047481651228403,0.010094918413415619,0.0011100109714312044
193.0,0.013637379947716974,0.00968481670990419,0.000963698966574951
193.5,0.013719414340299243,0.009766851102486459,0.001353059711490778
194.0,0.012415935524382093,0.008463372286569308,0.0003945396963088033
194.5,0.012361639225417912,0.008409075987605128,0.0007165666025617575
195.0,0.01134854547634739,0.007395982238534606,0.0001047105691360014
195.5,0.01010755584597176,0.006154992608158976,-0.0007165855110809072
196.0,0.010312181101769045,0.00635961786395626,-8.01197476970458e-05
196.5,0.009226128377032272,0.0052735651392194875,-0.0007282043930511885
197.0,0.0091398323180744,0.005187269080261616,-0.000376017037201702
197.5,0.00832447349702887,0.004371910259216086,-0.000757488456319416
198.0,0.007991289530633529,0.0040387262928207445,-0.0006659223554635928
198.5,0.007679999972616677,0.003727436734803893,-0.0005655255325530961
199.0,0.007354059442694519,0.0034014962048817344,-0.0004961326656078638
199.5,0.006657594726845464,0.00270503148903268,-0.0008162679086510197
200.0,0.007330589149867398,0.003378025912054614,0.00021202263309238589
200.5,0.006055250597430201,0.0021026873596174164,-0.0007304930932360144
201.0,0.005948291084767454,0.0019957278469546697,-0.0005279975596279829
201.5,0.005938838491240586,0.0019862752534278013,-0.00025176483168052504
202.0,0.005516809327896,0.001564246090083216,-0.00041184656072036033
202.5,0.005116423089999458,0.0011638598521866734,-0.000573619467509813
203.0,0.005468894703022486,0.0015163314652097016,-5.1553584998558465e-06
203.5,0.005904132511834004,0.00195156927402122,0.0006244158517754565
204.0,0.004974547685702238,0.001021984447889454,-0.00013134233632699924
204.5,0.005380999834292326,0.001428436596479542,0.0004297191362445218
205.0,0.0056265205798175545,0.0016739573420047702,0.0008120102965383728
205.5,0.005249896672190754,0.0012973334343779697,0.0005557429521336279
206.0,0.005057829121685584,0.0011052658838727998,0.0004690536257112946
206.5,0.005470112739954664,0.0015175495021418793,0.0009731529880645701
207.0,0.004995142366526538,0.0010425791287137533,0.0005778078436034709
207.5,0.005377030185526774,0.0014244669477139899,0.0010284396908449853
208.0,0.005271062001403,0.0013184987635902158,0.000981567231691947
208.5,0.005413112420035984,0.0014605491822231994,0.001174212210032294
209.0,0.00514662728832319,0.0011940640505104056,0.000950876332217321
209.5,0.005198177851654108,0.001245614613841324,0.0010390931236606944
210.0,0.005086401931179157,0.0011338386933663729,0.000958369437416937
210.5,0.00543966404219432,0.001487100804381536,0.0013378479869582266
211.0,0.005095935420120729,0.001143372182307945,0.0010161913698029101
211.5,0.004644702901251829,0.0006921396634390446,0.0005834960861634345
212.0,0.004806258153388649,0.0008536949155758646,0.0007605876650553757
212.5,0.0040666840548281135,0.0001141208170153292,3.401337422818539e-05
213.0,0.004476249869758296,0.0005236866319455113,0.0004544438981878773
213.5,0.004426430366043518,0.00047386712823073354,0.00041369892077186934
214.0,0.004304966025396316,0.0003524027875835313,0.00029981360175918486
214.5,0.004469086884005627,0.0005165236461928428,0.00047026836815635927
215.0,0.003952563237812784,0.0,-4.095482616748421e-05
215.5,0.004578935837988843,0.0006263726001760591,0.0005898628033545435
216.0,0.004375890851447431,0.0004233276136346468,0.00039055647019340187
216.5,0.004721464064633691,0.0007689008268209063,0.0007392861826259518
217.0,0.004622128126268593,0.000669564888455809,0.0006426276831327793
217.5,0.004657487245017653,0.0007049240072048686,0.000680270398339484
218.0,0.0046152801914924775,0.0006627169536796932,0.0006400232775003634
218.5,0.004992689747784366,0.001040126509971582,0.0010191266959914936
219.0,0.0045776799002772255,0.0006251166624644412,0.0006055917552356657
219.5,0.004541575875807181,0.0005890126379943968,0.0005707821154457514
220.0,0.004203436706957327,0.0002508734691445431,0.00023378808261638793
