wavelength,absorbance,absorbance_bk,residual_3gauss
117.0,0.4429797043829608,0.4487291044740741,-0.004790519696063478
117.5,0.4407208363924633,0.4464702364835766,-0.0038322533943797032
118.0,0.4403488638755516,0.4460982639666649,-0.0004142174803812293
118.5,0.43474423982551286,0.44049363991662616,-0.0016862698238927498
119.0,0.4315188250563055,0.4372682251474188,-6.800600039424953e-05
119.5,0.4276586453498378,0.4334080454409511,0.0013941895469737342
120.0,0.4224017595054482,0.4281511595965615,0.0019051674061021373
120.5,0.4166276117853512,0.4223770118764645,0.0023104765551604234
121.0,0.41048364003798216,0.41623304012909546,0.00272302830327803
121.5,0.4040549656195698,0.40980436571068307,0.0031927759592305094
122.0,0.3957839942504656,0.4015333943415789,0.002126228089993465
122.5,0.3872055645805152,0.3929549646716285,0.0010214213902146052
123.0,0.3791795739551356,0.3849289740462489,0.00070027358801239
123.5,0.3705619678315116,0.3763113679226249,-2.08030358270217e-05
124.0,0.36181149897271714,0.36756089906383044,-0.0007246222661222435
124.5,0.35318168481553486,0.35893108490664816,-0.0012018442115223071
125.0,0.3433900806001635,0.3491394806912768,-0.0027823625265027685
125.5,0.3356196917129285,0.3413690918040418,-0.002334609272852839
126.0,0.32690911734418665,0.33265851743529995,-0.002876147340424351
126.5,0.3184271246086646,0.3241765246997779,-0.0032998006506098077
127.0,0.31076861289610247,0.31651801298721577,-0.0030782996049431577
127.5,0.3038958540866746,0.3096452541777879,-0.0023234830360051584
128.0,0.2969559061861278,0.3027053062772411,-0.001969078893346188
128.5,0.2910546660367778,0.2968040661278911,-0.0009965153708735852
129.0,0.2858756534755506,0.2916250535666639,0.00018440898284116658
129.5,0.281144328857629,0.2868937289487423,0.0012008666763860254
130.0,0.27672262702649875,0.28247202711761205,0.0018130879365656494
130.5,0.27350026669340516,0.27924966678451846,0.002807776984188215
131.0,0.270850153235381,0.2765995533264943,0.0034561696360604355
131.5,0.2690995244859769,0.2748489245770902,0.00398833893138778
132.0,0.2683246315834846,0.2740740316745979,0.004391458765058476
132.5,0.26836447085151927,0.27411387094263256,0.004427420368307622
133.0,0.2691679378687514,0.27491733795986467,0.003984015864685164
133.5,0.2711377410345516,0.2768871411256649,0.0034228399009858523
134.0,0.2743963138615676,0.2801457139526809,0.0028489422352352967
134.5,0.2781900607377392,0.2839394608288525,0.0015183513603521104
135.0,0.284080460659564,0.2898298607506773,0.0010317840173251769
135.5,0.29066708747274483,0.29641648756385813,5.940845788654503e-05
136.0,0.29897603143395257,0.30472543152506587,-0.0002700119378789556
136.5,0.3084807758871069,0.31423017597822017,-0.0003486546901663723
137.0,0.31918403269857937,0.32493343278969267,-9.410228657469322e-06
137.5,0.3308248436422844,0.3365742437333977,0.0006784172002198829
138.0,0.3429414019365053,0.3486908020276186,0.0014679958557876072
138.2,0.34582788819355426,0.35157728828466756,-0.00022924786768330208
138.4,0.3508263345938949,0.3565757346850082,0.00017840546589248385
138.6,0.355582659388489,0.3613320594796023,0.0003527166679725968
138.8,0.35991643923235966,0.36566583932347296,0.0001292988317374011
139.0,0.3644755499439677,0.370224950035081,0.00017218993131934424
139.2,0.3690823261025988,0.3748317261937121,0.000319942977251797
139.4,0.3740575922577218,0.3798069923488351,0.00090958694578952
139.6,0.37838747176422416,0.38413687185533746,0.0009433649434908431
139.8,0.38221870705795824,0.38796810714907154,0.0005839838680339882
140.0,0.38577935144493414,0.39152875153604744,7.523607931125831e-05
140.2,0.38942813196737475,0.39517753205848805,-0.00020870692624308518
140.4,0.3931707358608462,0.3989201359519595,-0.0002470759101364517
140.6,0.3962407598735981,0.4019901599647114,-0.0007916206915175028
140.8,0.39906690129859057,0.40481630138970387,-0.0013994831356465842
141.0,0.40224139258254016,0.40799079267365346,-0.0014648241324831113
141.2,0.40487345921063217,0.41062285930174547,-0.0018654245692444338
141.4,0.407478093396163,0.4132274934872763,-0.0020739675118063294
141.6,0.4098935348747186,0.4156429349658319,-0.002240610085757877
141.8,0.41251560136931376,0.41826500146042705,-0.001958702331412321
142.0,0.4138348623776324,0.4195842624687457,-0.0027276592760846485
142.2,0.4167640255593716,0.4225134256504849,-0.001625616896252291
142.4,0.41741800405773616,0.42316740414884946,-0.0025294036435503098
142.6,0.4192446906734108,0.4249940907645241,-0.001983801681309183
142.8,0.42029183059231146,0.42604123068342475,-0.0019347062501387513
143.0,0.4207792018332205,0.4265286019243338,-0.002156974166439507
143.2,0.4222155285913789,0.4279649286824922,-0.0011375364907109664
143.4,0.4229910179100943,0.4287404180012076,-0.00048288517920858087
143.6,0.42231118358566094,0.42806058367677424,-0.0009852700783927748
143.8,0.42254755186712584,0.42829695195823914,-0.0002720119674848309
144.0,0.42140022079113526,0.42714962088224856,-0.0006429600573737426
144.2,0.4209447676849703,0.4266941677760836,-2.359961911718722e-05
144.4,0.4192141921476692,0.4249635922387825,-0.00038312256974060155
144.6,0.41783243236704853,0.42358183245816183,-0.00010092319762811108
144.8,0.41618132963463833,0.42193072972575163,0.00020035592177647388
145.0,0.41402639326180896,0.41977579335292226,0.0002805802674886726
145.2,0.4116839827982544,0.4174333828893677,0.00044929930188186695
145.4,0.4094742767570005,0.4152236768481138,0.0010187118286990593
145.6,0.4068733356151844,0.4126227357062977,0.0014557294134334708
145.8,0.40340883312821896,0.40915823321933226,0.0012777130036193407
146.0,0.3995693517402376,0.4053187518313509,0.0009617798665955135
146.2,0.39637109620204886,0.40212049629316216,0.0015115365113870238
146.4,0.39265320433255135,0.39840260442366465,0.0017524182780737085
146.6,0.3880109964908318,0.3937603965819451,0.0012649790564102648
146.8,0.38319985451254446,0.38894925460365776,0.0007888238674099712
147.0,0.3797529644782244,0.3855023645693377,0.0018404206627514186
147.2,0.37415012181726726,0.37989952190838056,0.0008819917463370186
147.4,0.3693812592485925,0.3751306593397058,0.0008851470256927563
147.6,0.3645173143751986,0.3702667144663119,0.0009018773061585383
147.8,0.3586208567372974,0.3643702568284107,-2.4671605180437428e-05
148.0,0.354087460397247,0.3598368604883603,0.0004813424937042954
148.2,0.3485940018685522,0.3543434019596655,7.694642901162618e-05
148.4,0.34340662173150904,0.34915602182262234,8.52401891215937e-06
148.6,0.33864573581881785,0.34439513590993115,0.000377056566784717
148.8,0.33367307770116467,0.33942247779227797,0.0005254104024410289
149.0,0.32854731093855016,0.33429671102966346,0.000494206198077829
149.2,0.32389786893839473,0.329647269029508,0.0008959232481127177
149.4,0.319442573277928,0.3251919733690413,0.0014327840672555547
149.6,0.3149592847991103,0.3207086848902236,0.0018686673673645737
149.8,0.3102082851697516,0.3159576852608649,0.0019517402657886485
150.0,0.3048620511183322,0.3106114512094455,0.0013444646917424863
150.5,0.2947610392888327,0.300510439379946,0.0026302709105367472
151.0,0.28333219436883667,0.28908159445994996,0.001902112565059233
151.5,0.2717580621277458,0.2775074622188591,0.0003967923228354042
152.0,0.2610768874558081,0.2668262875469214,-0.0006924097394209738
152.5,0.2507810956463764,0.2565304957374897,-0.0016350368536970916
153.0,0.2410022529041146,0.2467516529952279,-0.002009066709700247
153.5,0.23087760612873337,0.23662700621984667,-0.0023739170859521652
154.0,0.22047687727878823,0.22622627736990153,-0.002386375103633015
154.5,0.20955064589019412,0.21530004598130742,-0.002091440900494679
155.0,0.19799580237031245,0.20374520246142575,-0.0014864004123808783
155.5,0.18563400437234784,0.19138340446346114,-0.0007577290013280613
156.0,0.17261418375762283,0.17836358384873613,0.00012209320390002554
156.5,0.15877322752704315,0.16452262761815645,0.0007710011877188061
157.0,0.14468644676156314,0.15043584685267644,0.0014751663927546066
157.5,0.13170378810298394,0.13745318819409724,0.003259122626705885
158.0,0.11831328959989824,0.12406268969101154,0.004284151186251847
158.5,0.10428847367448064,0.11003787376559394,0.004026642696654717
159.0,0.090634659511602,0.0963840596027153,0.0032478110740531557
159.5,0.0783772744540718,0.0841266745451851,0.0027959972243864623
160.0,0.0652378579534641,0.0709872580445774,0.00028716414382609634
160.5,0.05411492566253986,0.059864325753653164,-0.0014179314427043843
161.0,0.044639599246498816,0.05038899933761212,-0.0026677840260247096
161.5,0.035727317321718154,0.04147671741283146,-0.004481562015101866
162.0,0.02797022387043695,0.03371962396155025,-0.006170944060059566
162.5,0.021730711834481744,0.027480111925595047,-0.007260002694211995
163.0,0.016078846577272318,0.02182824666838562,-0.008559152224056205
163.5,0.012613906090929857,0.01836330618204316,-0.008352296859229634
164.0,0.008537349219685627,0.014286749310798931,-0.00932976892390614
164.5,0.005701487190867389,0.011450887281980692,-0.009543056071055114
165.0,0.0032375776222450868,0.008986977713358392,-0.009778083163357374
165.5,0.001553958826857298,0.0073033589179706026,-0.009556987382732435
166.0,5.411074319461974e-05,0.005803510834307924,-0.009419027877829172
166.5,-0.0007166539852128549,0.005032746105900449,-0.008772366317332208
167.0,-0.0018141721706910312,0.0039352279204222735,-0.008635350230391622
167.5,-0.0029633865287279648,0.0027860135623853396,-0.008702819000979837
168.0,-0.004046007780656178,0.0017033923104571268,-0.008832289706992567
168.5,-0.003884094222501228,0.0018653058686120762,-0.007826290302022542
169.0,-0.004603767106315801,0.0011456329847975037,-0.007795066962988266
169.5,-0.00417396117945145,0.0015754389116618547,-0.006694545687448486
170.0,-0.004143384599907857,0.0016060154912054475,-0.006062689972319566
170.5,-0.004291606850026436,0.0014577932410868681,-0.005670137450998644
171.0,-0.005193889469162123,0.000555510621951181,-0.006084696903508156
171.5,-0.0051130412362698965,0.0006363588548434079,-0.005562958892457476
172.0,-0.005749400091113304,0.0,-0.005800099668748571
172.5,-0.005370257750249664,0.0003791423408636401,-0.00505917695304429
173.0,-0.004978881606475086,0.000770518484638218,-0.004340059149381092
173.5,-0.004958289761977305,0.0007911103291359991,-0.004023134003939894
174.0,-0.005404189485435436,0.0003452106056778684,-0.004202199313631757
174.5,-0.005168543713623029,0.0005808563774902754,-0.0037279939175003116
175.0,-0.004402033378820377,0.0013473667122929278,-0.0027506310387466447
175.5,-0.004276744409389684,0.00147265568172362,-0.002442257392217084
176.0,-0.004202486568746788,0.0015469135223665168,-0.0022133398914803188
176.5,-0.004332901498696551,0.0014164985924167532,-0.0022187320998708947
177.0,-0.004207363483456421,0.0015420366076568832,-0.0019995189952107402
177.5,-0.004145467411293276,0.0016039326798200281,-0.0018774301417030267
178.0,-0.003976825111271426,0.0017725749798418785,-0.0016845389973809697
178.5,-0.0032940059153134214,0.002455394175799883,-0.0010160821009710889
179.0,-0.00279267888529728,0.002956721205816024,-0.0005704552094774554
179.5,-0.00247546752444506,0.0032739325666682442,-0.00035289890390694965
180.0,-0.002595205277675764,0.0031541948134375403,-0.000618565943035288
180.5,-0.0018763975168625924,0.003873002574250712,-9.378236077009711e-05
181.0,-0.001207420439093523,0.004541979652019782,0.00033195878929505405
181.5,-0.0009615616315204739,0.004787838459592831,0.0002851559968264153
182.0,-0.0011137058383288599,0.0046356942527844445,-0.0002082049133043636
182.5,-0.0005013148210108602,0.005248085270102444,1.6521296315997157e-05
183.0,-0.0004077912482541737,0.005341608842859131,-0.00032061399151813753
183.5,0.0006257443848120371,0.006375144475925342,0.00024412873172797826
184.0,0.0006858647871904693,0.006435264878303774,-0.00019641291110837449
184.5,0.0014378921510374196,0.0071872922421507245,3.0686881962864974e-05
185.0,0.002511384543279893,0.008260784634393198,0.000563795467634607
185.5,0.00342185975533974,0.009171259846453044,0.0009282481223366404
186.0,0.003708237692679382,0.009457637783792687,0.0006735348422832032
186.5,0.0035052273797273963,0.009254627470840701,-5.461619606083115e-05
187.0,0.0035347750714376583,0.009284175162550963,-0.000523128632833025
187.5,0.004744387716162523,0.010493787807275827,0.0002263886926035779
188.0,0.005167688617403519,0.010917088708516823,0.00023783908213742544
188.5,0.005290264745338165,0.011039664836451468,6.143073773343458e-06
189.0,0.005914452742128234,0.011663852833241537,0.0003417150967725043
189.5,0.0060474417411972735,0.011796841832310577,0.00025830468296477414
190.0,0.006272558205014636,0.012021958296127941,0.00034407951421173283
190.5,0.005997707145062485,0.01174710723617579,9.933251904126195e-06
191.0,0.005799060076542022,0.011548460167655327,-0.00016688683602725934
191.5,0.005714964224088474,0.011464364315201779,-0.0001488573289091591
192.0,0.005854161691161828,0.011603561782275132,0.000170124217800929
192.5,0.006089180072258081,0.011838580163371385,0.0006582771293328366
193.0,0.005616812763976905,0.01136621285509021,0.0005066189902347955
193.5,0.005654739327446192,0.011404139418559497,0.0009258290346890498
194.0,0.004756151209357869,0.010505551300471174,0.000461145691130576
194.5,0.004049600627461921,0.009799000718575226,0.00023250247547894343
195.0,0.0030682970571455307,0.008817697148258835,-0.0002358865814365823
195.5,0.0013314047646396804,0.0070808048557529845,-0.0014339507096289396
196.0,0.001119849222471718,0.0068692493135850225,-0.0010896980888592525
196.5,0.0006758172716060001,0.006425217362719305,-0.0009694870875716259
197.0,0.00024296642668683455,0.0059923665178001385,-0.0008376238764463565
197.5,-0.0008776290565484282,0.004871771034564877,-0.0014002626680008788
198.0,-0.0007242444253645182,0.005025155665748786,-0.0007020592549419977
198.5,-0.001697934662108742,0.0040514654290045625,-0.001149529054381532
199.0,-0.0024350468189400245,0.00331435327217328,-0.0013835255314452797
199.5,-0.0024808606984570367,0.0032685393926562677,-0.0009528815901244199
200.0,-0.0019742428885794958,0.0037751572025338086,9.057435036590768e-07
200.5,-0.002798585360856875,0.0029508147302564295,-0.0004073185389089221
201.0,-0.0025921213546619614,0.003157278736451343,0.00018324241604137466
201.5,-0.0028089740095322184,0.002940426081581086,0.0003182009724749203
202.0,-0.0028823694233587865,0.002867030667754518,0.0005646760391884386
202.5,-0.003231630630240577,0.0025177694608727276,0.0005041997442200266
203.0,-0.002835811857401192,0.0029135882337121125,0.0011589844914693496
203.5,-0.0024908784423006004,0.003258521648812704,0.0017346483899392485
204.0,-0.0027781585376673414,0.002971241553445963,0.0016516755431536464
204.5,-0.0029525361498921854,0.002796863941221119,0.0016571435296160886
205.0,-0.0028166106442579514,0.002932789446855353,0.0019504941305834055
205.5,-0.00363246416115142,0.0021169359299618843,0.0012717064416375055
206.0,-0.0029301276781749062,0.002819272412938398,0.002092781697622159
206.5,-0.0031031930325340846,0.00264620705857922,0.0020220921449902074
207.0,-0.003029537724389809,0.0027198623667234953,0.0021836264733568382
207.5,-0.0028871208493700825,0.002862279241743222,0.002401172569244265
208.0,-0.0028726353726631878,0.0028767647184501166,0.0024796513546625713
208.5,-0.0025684116911277688,0.0031809883999855356,0.0028382056762601728
209.0,-0.0028241028128810903,0.002925297278232214,0.0026285128248841228
209.5,-0.0030984941352020425,0.002650905955911262,0.002392976657811876
210.0,-0.0025932065710561674,0.003156193520057137,0.0029310296041894254
210.5,-0.0031545808082549423,0.002594819282858362,0.0023972559007023656
211.0,-0.002586152048235513,0.0031632480428777916,0.002988925954267567
211.5,-0.003063547665783336,0.0026858524253299686,0.0025311087513112877
212.0,-0.00312524525883286,0.0026241548322804443,0.0024859243204946625
212.5,-0.003119630053930944,0.0026297700371823605,0.00250549686769711
213.0,-0.0029631889126347727,0.0027862111784785317,0.0026737710208818966
213.5,-0.0029777525109448005,0.002771647580168504,0.0026692793823503915
214.0,-0.003133628018818609,0.0026157720722946956,0.0025220189050379075
214.5,-0.0024600953131897734,0.003289304777923531,0.0032029629645965686
215.0,-0.0024304772064633008,0.0033189228846500036,0.003238998599918617
215.5,-0.0023409197164412678,0.0034084803746720366,0.003334152889230325
216.0,-0.0020438355233511727,0.0037055645677621317,0.0036361553378963934
216.5,-0.002295318232229228,0.0034540818588840766,0.003389028701874249
217.0,-0.002179471431959673,0.0035699286591536314,0.003508764311131673
217.5,-0.0020542445658113077,0.0036951555253019967,0.003637489941598386
218.0,-0.0020641961713603343,0.00368520391975297,0.0036307097445650023
218.5,-0.0022687303076699456,0.003480669783443359,0.0034290704825234476
219.0,-0.0022488433215623817,0.0035005567695509227,0.003451616984134539
219.5,-0.0022037326410691183,0.003545667450044186,0.0034991851907786357
220.0,-0.0022492011108792894,0.003500198980234015,0.0034559993354148074
