wavelength,absorbance,absorbance_bk,residual_3gauss,Gauss_1,Gauss_2,Gauss_3,Gauss_4,Gauss_fit
117.0,0.9609665518201971,0.9617448629293814,-0.0035085491510723488,1.339286449008584e-06,6.399424425793316e-57,0.9652520727940048,1.9285179085399058e-142,0.9652534120804538
117.5,0.9585844539556752,0.9593627650648595,0.0011802668289181417,2.4105734602818952e-06,5.215694373296568e-55,0.9581800876624811,2.2335093044590537e-139,0.9581824982359414
118.0,0.9472533762772057,0.9480316873863901,-0.0018665077497801441,4.260597918741315e-06,3.7943281534765146e-53,0.9498939345382515,2.2558395864045752e-136,0.9498981951361702
118.5,0.9386312083596051,0.9394095194687895,-0.0010563356333916918,7.397691978323772e-06,2.4697427260278643e-51,0.9404584574102028,1.9923217377324706e-133,0.9404658551021812
119.0,0.9271528160679201,0.9279311271771045,-0.0020221233550886675,1.2623087036640367e-05,1.4417190605515444e-49,0.9299406274451565,1.5427274211553072e-130,0.9299532505321931
119.5,0.9178566506464021,0.9186349617555865,0.00020477323807643888,2.117593913569081e-05,7.565120186836173e-48,0.9184090125783744,1.0500716890637528e-127,0.91843018851751
120.0,0.9041623111422867,0.9049406222514711,-0.0010275870907560103,3.49371762848073e-05,3.576253045149176e-46,0.9059332721659423,6.29861231665488e-125,0.9059682093422271
120.5,0.895070145922932,0.8958484570321164,0.0032080679231020204,5.6709707340882944e-05,1.5263924764486079e-44,0.8925836794016735,3.3376315766048365e-122,0.8926403891090143
121.0,0.878881225733858,0.8796595368430423,0.0011382681946576767,9.059501064627014e-05,5.89462405987242e-43,0.8784306736377384,1.5661985511119065e-119,0.8785212686483846
121.5,0.865507837567835,0.8662861486770194,0.002599216678150773,0.00014248778270066576,2.06396754070033e-41,0.8635444442161679,6.523700165076836e-117,0.8636869319988686
122.0,0.8483722028714568,0.8491505139806411,0.0009352564709190769,0.00022071058785052422,6.5658438800666935e-40,0.8479945469218715,2.4175802842331815e-114,0.848215257509722
122.5,0.8305460716557386,0.8313243827649229,-0.0008619795831534827,0.0003368086379877301,1.90144145876648e-38,0.8318495537100887,7.9888868979960105e-112,0.8321863623480764
123.0,0.8134149219813255,0.8141932330905098,-0.0014900230981391704,0.0005065202444982821,5.022547939946083e-37,0.8151767359441507,2.3592127819926863e-109,0.815683256188649
123.5,0.7961882274837171,0.7969665385929015,-0.0018261728841048042,0.0007509304726202604,1.2123798160578952e-35,0.7980417810043859,6.239636651344094e-107,0.7987927114770063
124.0,0.7775220319467827,0.7783003430559671,-0.0033060023375985903,0.001097803597326308,2.6793705101749514e-34,0.7805085417962393,1.481078609455826e-104,0.7816063453935657
124.5,0.7587854313687027,0.759563742477887,-0.004658149810303214,0.0015830738935453342,5.431178052147367e-33,0.762638818394645,3.161685989434523e-102,0.7642218922881903
125.0,0.7400463007010736,0.7408246118102579,-0.005920013276447644,0.0022524542749544018,1.0115618083715106e-31,0.7444921708117512,6.082145426116175e-100,0.7467446250867056
125.5,0.7226618155038702,0.7234401266130546,-0.005848734064018535,0.0031630990127319127,1.7341254263122396e-30,0.7261257616643412,1.0564497727812604e-97,0.7292888606770731
126.0,0.704425518812243,0.7052038299214274,-0.006775628903766595,0.004385231481063403,2.740904927261813e-29,0.7075942273441306,1.6600946449789868e-95,0.711979458825194
126.5,0.6883293196222403,0.6891076307314247,-0.005845567864757317,0.00600362243998942,4.0008478911238143e-28,0.6889495761561926,2.364441674724394e-93,0.694953198596182
127.0,0.6727640302118041,0.6735423413209884,-0.004817551621427052,0.008118781156843329,5.402041103188203e-27,0.6702411117855722,3.0580055421546623e-91,0.6783598929424155
127.5,0.6583637413291171,0.6591420524383015,-0.003221031389592177,0.010847703450677685,6.757702001502661e-26,0.651515380377216,3.5978805653329036e-89,0.6623630838278937
128.0,0.6447286186837158,0.6455069297929001,-0.0016332201243414168,0.014324010450492645,7.844184216291259e-25,0.6328161394667489,3.8576437924796774e-87,0.6471401499172416
128.5,0.6329551062364777,0.633733417345662,0.0008517580755024179,0.01869731229329173,8.461776577330263e-24,0.6141843469768679,3.775861967567445e-85,0.6328816592701596
129.0,0.6218447689133957,0.62262308002258,0.0028332670308339747,0.0241316444986134,8.495389286467078e-23,0.5956581684931327,3.379593052505632e-83,0.6197898129917461
129.5,0.6125979073689468,0.6133762184781312,0.0053003645390443666,0.030802852887708114,7.949536133355269e-22,0.5772730010513787,2.7706848329600364e-81,0.6080758539390868
130.0,0.6041379810463038,0.6049162921554881,0.006959934347431251,0.03889484610410836,6.943078932341394e-21,0.5590615117039486,2.083958920601363e-79,0.5979563578080569
130.5,0.5970231585976401,0.5978014697068245,0.008153088392137242,0.04859469213356349,5.667817215207424e-20,0.5410536891811237,1.4403250963923065e-77,0.5896483813146872
131.0,0.5927031584321091,0.5934814695412934,0.01011795816044081,0.06008660435568391,4.3303350049083013e-19,0.5232769070251687,9.161715503298842e-76,0.5833635113808526
131.5,0.5893801341197031,0.5901584452288875,0.010857508780573788,0.07354493980331982,3.1005933651747492e-18,0.5057559966449939,5.371547109177218e-74,0.5793009364483137
132.0,0.587784123031644,0.5885624341408283,0.010922692883480689,0.08912641243962902,2.0832867838982405e-17,0.4885133288177186,2.907206673917031e-72,0.5776397412573476
132.5,0.5884687756722425,0.5892470867814269,0.010716383058607781,0.10696180147546398,1.31518045181091e-16,0.47156890224735504,1.454589696880809e-70,0.5785307037228191
133.0,0.5911176471968291,0.5918959583060135,0.009808017719459383,0.12714750270766617,7.810753392021899e-16,0.45494043787888716,6.737739206577117e-69,0.5820879405865541
133.5,0.5959414004533896,0.596719711562574,0.008338910442451941,0.14973732336349868,4.369175448366732e-15,0.438643477756619,2.8933778634826913e-67,0.588380801120122
134.0,0.6032724200337021,0.6040507311428864,0.006624291324558662,0.1747349525108498,2.3047372086310578e-14,0.4226914873074549,1.1534772460994623e-65,0.5974264398183278
134.5,0.6120814126708071,0.6128597237799914,0.0036762182209149064,0.20208754553730263,1.1477943645922006e-13,0.40709596002165915,4.274735553240566e-64,0.6091835055590765
135.0,0.6252484051147181,0.6260267162239025,0.0024793525778036285,0.23168084005107248,5.402840335543268e-13,0.39186652359448615,1.474610434251395e-62,0.6235473636460989
135.5,0.6394559045564807,0.6402342156656651,-0.00011300242102119107,0.26333617140310495,2.4064657269547246e-12,0.3770110466811749,4.741033292764265e-61,0.6403472180866863
136.0,0.6575137654080928,0.6582920765172772,-0.001053349644066448,0.2968096806469296,1.0153379521443254e-11,0.3625357455042606,1.422475516283667e-59,0.6593454261613436
136.5,0.6775487279073928,0.6783270390165772,-0.0019121606885194042,0.3317939100289686,4.062364080289769e-11,0.3484452896355044,3.9877691331924884e-58,0.6802391997050966
137.0,0.7008154505713192,0.7015937616805036,-0.0010710115983726398,0.367921866770121,1.542902508353045e-10,0.334742906354465,1.0458155298347355e-56,0.7026647732788762
137.5,0.7256006392281248,0.7263789503373091,0.00017495462164029973,0.4047735120973962,5.568447772354751e-10,0.32143048306142785,2.5688330985851847e-55,0.7262039957156688
138.0,0.7509059605117961,0.7516842716209805,0.0012910952307101375,0.441884507184792,1.911618143982962e-09,0.30850866729386023,5.916677535840507e-54,0.7503931763902704
138.2,0.7597514968878807,0.760529807997065,0.00038972468475906297,0.4566908438088139,3.0880170298498742e-09,0.30344923641547505,2.0384644435628248e-53,0.760140083312306
138.4,0.76955853611757,0.7703368472267543,0.00045843514217935866,0.4714262517650963,4.949676491114442e-09,0.29845215536980224,6.952945101834652e-53,0.769878412084575
138.6,0.7800183643042693,0.7807966754134537,0.001222028809071296,0.48605732035912996,7.872618029410833e-09,0.2935173183726344,2.3480421357183997e-52,0.7795746466043824
138.8,0.789560393716488,0.7903387048256724,0.0011437335195326748,0.5005503642029041,1.2426053376234455e-08,0.2886445946771821,7.851364779166592e-52,0.7891949713061397
139.0,0.798844924224499,0.7996232353336834,0.0009178213325303775,0.5148715650507543,1.9464584035779203e-08,0.2838338294858147,2.5996633992552168e-51,0.798705414001153
139.2,0.8080062281768302,0.8087845392860146,0.0007125486315645579,0.5289871155466652,3.0260835071225114e-08,0.2790848448469497,8.524168904894379e-51,0.80807199065445
139.4,0.8179003482959325,0.8186786594051169,0.0014178082173069706,0.5428633639563966,4.669456495267542e-08,0.27439744053684834,2.7680884394401455e-50,0.8172608511878099
139.6,0.8265767113822333,0.8273550224914177,0.0011165970937472292,0.5564669589516968,7.151991044277939e-08,0.26977139492606317,8.902882688998748e-50,0.8262384253976705
139.8,0.8354668760605377,0.8362451871697221,0.0012736190839381933,0.5697649935157659,1.0873970274398609e-07,0.2652064658303152,2.8361791709717924e-49,0.8349715680857839
140.0,0.843265783197133,0.8440440943063173,0.0006163917866292001,0.5827251470489404,1.6412510198467995e-07,0.26070239134564577,8.949902670118692e-49,0.8434277025196881
140.2,0.8504694060347429,0.8512477171439272,-0.0003272442257840069,0.5953158247715028,2.459305567253856e-07,0.2562588906676517,2.7977807585562936e-48,0.8515749613697112
140.4,0.8580178513023213,0.8587961624115057,-0.0005861618976064076,0.6075062935456643,3.658687488157979e-07,0.25187566489469887,8.664601885531524e-48,0.8593823243091121
140.6,0.864486975043751,0.8652652861529354,-0.001554465361609192,0.6192668132713578,5.404281878433683e-07,0.24755239781499896,2.658592253168696e-47,0.8668197515145446
140.8,0.8700947292113891,0.8708730403205734,-0.0029852720445898706,0.6305687630497986,7.926379119219232e-07,0.24328875667745276,8.082606569135134e-47,0.8738583123651633
141.0,0.8763773033532318,0.8771556144624162,-0.0033146942477659813,0.6413847613542435,1.1544097130769363e-06,0.2390843929462257,2.4348706584368984e-46,0.8804703087101822
141.2,0.8816180765197613,0.8823963876289457,-0.004233004527616435,0.651688779498871,1.6696187057805341e-06,0.2349389430389853,7.268638200191829e-46,0.8866293921565621
141.4,0.8859672239885008,0.8867455350976852,-0.005565139822176435,0.6614562477530631,2.3981179893107454e-06,0.23085202904880917,2.1503573311325498e-45,0.8923106749198616
141.6,0.8911397759771476,0.8919180870863319,-0.005572746795396544,0.6706641535095276,3.4209224554602302e-06,0.22682325944974543,6.30487018807283e-45,0.8974908338817285
141.8,0.895902785969903,0.8966810970790874,-0.005467110526463537,0.6792911309795503,4.846839952104178e-06,0.22285222978604854,1.832216920712534e-44,0.9021482076055509
142.0,0.8992020985203489,0.8999804096295333,-0.006282476546427329,0.6873175419567569,6.820874071929236e-06,0.2189385233451319,5.277642052503109e-44,0.9062628861759606
142.2,0.9037876712230608,0.9045659823322452,-0.0052508115136906675,0.6947255472613709,9.534770283909798e-06,0.21508171181428104,1.5069267393026227e-43,0.9098167938459358
142.4,0.9064371674466111,0.9072154785557954,-0.005578286038466662,0.7014991685492565,1.3240123799408317e-05,0.21128135592120617,4.2654039384629116e-43,0.9127937645942621
142.6,0.909622737572081,0.9104010486812654,-0.004778562131283248,0.7076243402434785,1.8264510559791805e-05,0.20753700605851033,1.1969346931037815e-42,0.9151796108125486
142.8,0.9116650249678137,0.912443336076998,-0.0045188493733824275,0.7130889514198762,2.503113833647715e-05,0.20384820289216773,3.330038427338508e-42,0.9169621854503804
143.0,0.9132984038402077,0.914076714949392,-0.004054723094928159,0.7178828775515826,3.4082538602071685e-05,0.20021447795413555,9.18591807048036e-42,0.9181314380443202
143.2,0.9148572489947356,0.91563556010392,-0.0030439050314535754,0.7219980020899615,4.6108826209290544e-05,0.19663535421920292,2.512558900417834e-41,0.9186794651353736
143.4,0.9158235740987177,0.9166018852079021,-0.0019986704255285925,0.7254282279302648,6.198103693285244e-05,0.19311034666623295,6.814844081861409e-41,0.9186005556334307
143.6,0.9149742363955305,0.9157525475047149,-0.002138684204266217,0.7281694788790758,8.279000597696843e-05,0.18963896282392828,1.8330191949453433e-40,0.9178912317089811
143.8,0.9145965234244791,0.9153748345336634,-0.0011754512408909124,0.7302196913065406,0.00010989116673943587,0.18622070330127424,4.8896159326997575e-40,0.9165502857745543
144.0,0.9122424133877712,0.9130207244969556,-0.00155808955666914,0.7315787962291269,0.00014495552165546597,0.18285506230284235,1.2936123771998214e-39,0.9145788140536247
144.2,0.9109265146090216,0.911704825718206,-0.00027542139819258793,0.7322486921277128,0.00019002685958153918,0.1795415281291042,3.39453347318809e-39,0.9119802471163986
144.4,0.9071535902533449,0.9079319013625292,-0.0008284762219743502,0.7322332088607448,0.0002475850618009356,0.17627958366195787,8.835419905492968e-39,0.9087603775845036
144.6,0.9036774772683202,0.9044557883775045,-0.00047159658885553846,0.7315380630827398,0.00032061504797710716,0.17306870683564315,2.2812344105926988e-38,0.90492738496636
144.8,0.8995175162264304,0.9002958273356148,-0.00019602994516265682,0.7301708056242,0.00041268056333216695,0.16990837109324514,5.842954721718804e-38,0.9004918572807774
145.0,0.8949812312626039,0.8957595423717882,0.0002927336117102275,0.7281407613298646,0.0005280016012159911,0.16679804582899735,1.4847013172675905e-37,0.895466808760078
145.2,0.8898344931212293,0.8906128042304137,0.0007451117288095332,0.7254589618879311,0.0006715337970975233,0.1637371968165755,3.7429456909696746e-37,0.8898676925016041
145.4,0.8849508787386419,0.8857291898478262,0.002016783379582665,0.722138072213366,0.0008490476312661313,0.16072528662361144,9.362234716396068e-37,0.8837124064682436
145.6,0.8788722599512703,0.8796505710604546,0.00262928032085441,0.7181923109735823,0.001067204753378901,0.15776177501263913,2.3235959858343356e-36,0.8770212907396002
145.8,0.8716002424559569,0.8723785535651413,0.0025614401592563008,0.7136373658646028,0.0013336282125920177,0.15484611932869022,5.7224255138052343e-36,0.869817113405885
146.0,0.8646552156938855,0.8654335268030698,0.0033084848014858226,0.7084903042604168,0.0016569628673920647,0.15197777487377515,1.398496175060521e-35,0.862125042001584
146.2,0.85644461927554,0.8572229303847244,0.003250333459820287,0.7027694798676006,0.0020469217888307452,0.14915619526847285,3.391774796448282e-35,0.8539725969249041
146.4,0.8485321403977093,0.8493104515068937,0.003920868591772764,0.6964944360215964,0.0025143140926686207,0.14638083280085576,8.163946256843887e-35,0.8453895829151209
146.6,0.8393074916813411,0.8400858027905255,0.0036778083916840787,0.6896858062605427,0.003071049375294973,0.14365113876300376,1.9503084599599184e-34,0.8364079943988414
146.8,0.8298456969163995,0.8306240080255839,0.0035621176217395245,0.6823652128072374,0.0037301138212922818,0.1409665637753147,4.624438142791524e-34,0.8270618904038444
147.0,0.8202368439489677,0.821015155058152,0.00362792024703551,0.6745551635803057,0.004505513131931389,0.13832655809887953,1.088402269668517e-33,0.8173872348111165
147.2,0.8093820131526788,0.8101603242618631,0.0027386262589527144,0.6662789483417374,0.005412177725036524,0.13573057193613644,2.542827025021684e-33,0.8074216980029104
147.4,0.799290810678688,0.8000691217878724,0.002864705294530423,0.6575605345704387,0.006465826202842856,0.13317805572006033,5.897433690001999e-33,0.797204416493342
147.6,0.7881947146556445,0.7889730257648289,0.0021973178498374546,0.6484244636302405,0.007682783892627361,0.13066846039212354,1.357844283432156e-32,0.7867757079149914
147.8,0.7760835262931347,0.7768618374023191,0.000685097615439556,0.6388957477764553,0.009079754341163296,0.1282012376692609,3.1038386983458446e-32,0.7761767397868795
148.0,0.7655898387963502,0.7663681499055346,0.0009189981056987317,0.6289997685179796,0.010673542981760136,0.1257758403000961,7.044205998014398e-32,0.7654491517998359
148.2,0.7543659985438397,0.755144309653024,0.000509676749387622,0.6187621768221632,0.012480733770821926,0.12339172231065133,1.5873400479911836e-31,0.7546346329036364
148.4,0.7434560495996394,0.7442343607088238,0.0004599044778879069,0.6082087956180122,0.014517321373126826,0.12104833923979684,3.5516818139780495e-31,0.7437744562309359
148.6,0.733432342421744,0.7342106535309284,0.001301676736823243,0.5973655250196532,0.016798303409781567,0.11874514836467036,7.891240016008813e-31,0.7329089767941052
148.8,0.7233110814437945,0.7240893925529789,0.0020122936758951715,0.5862582506570444,0.019337239303738683,0.1164816089163006,1.7411027027921884e-30,0.7220770988770837
149.0,0.7132570556648842,0.7140353667740685,0.0027196447375630317,0.5749127554650044,0.022145784285814884,0.11425718228568614,3.814978694258275e-30,0.7113157220365055
149.2,0.7036015430699942,0.7043798541791786,0.003720677643591852,0.563354635244745,0.025233209070294492,0.1120713322205472,8.301736283530495e-30,0.7006591765355867
149.4,0.694133387062166,0.6949116981713503,0.004773037405384151,0.5516092182751227,0.028605917477846004,0.10992352501299751,1.7942178921422714e-29,0.6901386607659662
149.6,0.6841297071066129,0.6849080182157973,0.005126323546598921,0.5397014892135428,0.03226697577729274,0.10781322967836277,3.851510246466551e-29,0.6797816946691984
149.8,0.6742199973983835,0.6749983085075678,0.00538670425043708,0.5276560174894595,0.03621566864230025,0.10573991812537106,8.212144743694702e-29,0.6696116042571307
150.0,0.6639208978357478,0.6646992089449322,0.005052155981796536,0.5154968903569886,0.04044709728819627,0.10370306531795072,1.7392887389762556e-28,0.6596470529631356
150.5,0.6404562128050125,0.6412345239141969,0.0055237397415413,0.48475483704439565,0.052188923018978456,0.09876702410928151,1.1029488477127128e-27,0.6357107841726556
151.0,0.6155363428771774,0.6163146539863618,0.003124531916889328,0.4537983056989351,0.06534427760777843,0.09404753876275901,6.713919315276946e-27,0.6131901220694724
151.5,0.5908257518779421,0.5916040629871264,-0.0003198043902141734,0.4229495895645061,0.07943758386970344,0.08953669394313105,3.9258405848053384e-26,0.5919238673773406
152.0,0.5672114614694781,0.5679897725786625,-0.003552950187311943,0.3924993653329088,0.09381662821968434,0.08522672921338126,2.2065724563972816e-25,0.5715427227659744
152.5,0.5450833956390568,0.5458617067482412,-0.00565130644660683,0.3627043192520637,0.10769864535306384,0.08111004858972046,1.1929451719237696e-24,0.551513013194848
153.0,0.5243568580160721,0.5251351691252565,-0.006071292509053694,0.33378586805225047,0.12024136499399447,0.0771792285880653,6.207575235429669e-24,0.5312064616343102
153.5,0.5030695897040429,0.5038479008132273,-0.006138965322276535,0.30592987494266843,0.13062996631414303,0.0734270248786924,3.110999751089154e-23,0.5099868661355038
154.0,0.48097484910332183,0.4817531602125062,-0.005547521983456261,0.2792872410261965,0.13816706350922853,0.0698463776605374,1.5025419526338513e-22,0.48730068219596245
154.5,0.45699584327718856,0.4577741543863729,-0.004983044812494564,0.2539752400250059,0.14235154331257244,0.06643041586128916,6.997921546288987e-22,0.4627571991988675
155.0,0.4323980391398425,0.43317635024902684,-0.0030092629001854942,0.23007945858190043,0.14293369430323272,0.06317246026407919,3.1447756647863098e-21,0.43618561314921234
155.5,0.40549003256596294,0.4062683436751473,-0.0013921517570301134,0.2076562047600312,0.13993826501594617,0.06006602565620006,1.3644132787119768e-20,0.4076604954321774
156.0,0.3776863230167935,0.37846463412597786,0.0009716846109892874,0.18673525272736244,0.13365287469766118,0.0571048220899649,5.718613167278831e-20,0.3774929495149886
156.5,0.3489777745002832,0.3497560856094676,0.0035652951253073994,0.16732280093846266,0.1245852342051294,0.05428275534056807,2.3167132574631325e-19,0.3461907904841602
157.0,0.31983063814802326,0.3206089492572076,0.006212894023285898,0.14940453337197207,0.1133975952212941,0.05159392664065554,9.076834304521947e-19,0.3143960552339217
157.5,0.291495654366485,0.29227396547566936,0.009462867559724752,0.1329486875568427,0.10082977859281918,0.049032631766282746,3.441251969639643e-18,0.2828110979159446
