wavelength,absorbance,absorbance_bk,residual_3gauss,Gauss_1,Gauss_2,Gauss_3,Gauss_4,Gauss_fit
117.0,0.7143540260351556,0.7175192166096658,-0.004546361372991914,1.0427663525518588e-06,9.51280551294712e-57,0.7220645352163051,4.2218811660541706e-100,0.7220655779826577
117.5,0.7096936428608536,0.7128588334353637,-0.0038466921109324703,1.8730692400535817e-06,7.443310568050257e-55,0.7167036524770561,6.037117626106757e-98,0.7167055255462962
118.0,0.7052705510606254,0.7084357416351356,-0.0020038858697654094,3.3041235429990914e-06,5.205468463601331e-53,0.710436323381358,7.836489685293673e-96,0.710439627504901
118.5,0.701354246652606,0.7045194372271162,0.0012024273834292387,5.726191296364169e-06,3.261514546805954e-51,0.7033112836523906,9.251526710691446e-94,0.703317009843687
119.0,0.6912466194835002,0.6944118100580103,-0.000976780090846452,9.753263932343435e-06,1.8350592719447877e-49,0.6953788368849244,9.952169994600182e-92,0.6953885901488568
119.5,0.6865101757605163,0.6896753663350265,0.002968575420011943,1.6333230607652834e-05,9.292531634430594e-48,0.6866904576844068,9.773021164630099e-90,0.6867067909150145
120.0,0.6757321128826642,0.6788973034571744,0.0015719872358544995,2.6902446626685567e-05,4.244535278670228e-46,0.6772984137746931,8.776527197813319e-88,0.6773253162213199
120.5,0.6671303418377085,0.6702955324122186,0.002996525509880943,4.359782663405325e-05,1.752568700882008e-44,0.6672554090757036,7.220345540389096e-86,0.6672990069023377
121.0,0.6558658901324178,0.659031080706928,0.0023472899775460743,6.954139912133787e-05,6.5551659953350276e-43,0.6566142493302606,5.4510003342734455e-84,0.6566837907293819
121.5,0.6457419613838699,0.64890715195838,0.0033704070515276907,0.00010921344567902092,2.2256140846249453e-41,0.6454275314611733,3.7827033851093993e-82,0.6455367449068523
122.0,0.6338911914919437,0.6370563820664539,0.003140094123352921,0.00016893047473954146,6.873006418128049e-40,0.6337473574683614,2.4168234591371574e-80,0.633916287943101
122.5,0.6194292523928681,0.6225944429673782,0.0007119267857317313,0.00025744284781740263,1.9343163632382728e-38,0.6216250733338291,1.4239575957871704e-78,0.6218825161816465
123.0,0.607972001679218,0.6111371922537282,0.0016394957936614052,0.00038666336907693696,4.970793846506695e-37,0.6091110330909899,7.748831732785181e-77,0.6094976964600668
123.5,0.5934049170493683,0.5965701076238784,-0.00025681240183539344,0.0005725320905565315,1.168573666138626e-35,0.5962543879351573,3.900542600625147e-75,0.5968269200257138
124.0,0.5794173452297186,0.5825825358042287,-0.0013563778192170473,0.0008360136193404564,2.5177616888791905e-34,0.5831029000041053,1.8189108881797412e-73,0.5839389136234457
124.5,0.5649688328077412,0.5681340233822514,-0.0027729680504123833,0.0012042111916067183,4.980573721775638e-33,0.569702780241057,7.869174514611004e-72,0.5709069914326638
125.0,0.5513439515272002,0.5545091421017103,-0.003300974316729266,0.0017115668517090337,9.061723757563634e-32,0.5560985495667305,3.162992615288533e-70,0.5578101164184396
125.5,0.537480395506382,0.5406455860808922,-0.00408843611650922,0.0024010997666765186,1.5189808614535866e-30,0.5423329224307248,1.1828367297407771e-68,0.5447340221974014
126.0,0.5241821325082088,0.5273473230827189,-0.004425004567686686,0.0033256159660623335,2.3497977304899816e-29,0.5284467116843433,4.120996536179019e-67,0.5317723276504056
126.5,0.5118731024883918,0.5150382930629019,-0.003989264556053529,0.004548804003828656,3.360127452127507e-28,0.5144787536151268,1.3394017971543092e-65,0.5190275576189555
127.0,0.49895427361195527,0.5021194641864655,-0.0044925016780145155,0.006146113958445524,4.448592918243299e-27,0.5004658519060344,4.0664788544257493e-64,0.50661196586448
127.5,0.48797740045429344,0.4911425910288036,-0.0035054520634811848,0.008205303864805459,5.461479821534451e-26,0.4864427392274793,1.1547309160277668e-62,0.4946480430922848
128.0,0.47762840803795525,0.4807935986124654,-0.0024749867904015344,0.010826530266767722,6.227056492552561e-25,0.4724420551360992,3.070728463977429e-61,0.48326858540286693
128.5,0.4677946493116962,0.4709598398862063,-0.0016563592042236897,0.014121860152083774,6.603732319203467e-24,0.45849433893834624,7.656538644259576e-60,0.47261619909043
129.0,0.45980735349099267,0.4629725440655028,0.00013041609144875954,0.01821409179665533,6.523270230944121e-23,0.4446280361773987,1.7921516399545315e-58,0.46284212797405405
129.5,0.4528583622557175,0.45602355283022766,0.0019192422925408126,0.02323479312089901,6.010791366144975e-22,0.43086951741678786,3.942556783966332e-57,0.45410431053768685
130.0,0.4463563135691065,0.44952150414361663,0.0029568977775574767,0.02932149834475863,5.173635558152099e-21,0.41724310802130055,8.160955774054795e-56,0.44656460636605916
130.5,0.4415424583844079,0.44470764895891807,0.004322474957174027,0.036614046328297865,4.16535635642219e-20,0.4037711276734462,1.5913011385049982e-54,0.44038517400174404
131.0,0.43730505128996927,0.4404702418644794,0.004746208213805392,0.045250095240398754,3.1411014427521735e-19,0.3904739384102753,2.926106706713721e-53,0.435724033650674
131.5,0.4351473902789057,0.43831258085341585,0.005582675531864478,0.05535990530264316,2.2215389712767562e-18,0.3773700000189082,5.079518223482202e-52,0.43272990532155137
132.0,0.43418303668205754,0.4373482272565677,0.005811754969056782,0.06706054059914288,1.475449947013782e-17,0.364475931688368,8.333123727070867e-51,0.4315364722875109
132.5,0.4350269410326541,0.43819213160716425,0.005935854762490866,0.08044969796597203,9.213783199374305e-17,0.35180657887870126,1.2932869941867736e-49,0.4322562768446734
133.0,0.4370457686807693,0.4402109592552794,0.0052364537082678075,0.09559942111225084,5.416604678265361e-16,0.3393750844347602,1.900742481508792e-48,0.4349745055470116
133.5,0.44061167838951554,0.4437768689640257,0.0040339091034850005,0.11254999682029485,3.0013261297037036e-15,0.3271929630402428,2.648032883514789e-47,0.4397429598605407
134.0,0.4465668815576274,0.44973207213213756,0.0031575406542074247,0.13130435330129278,1.5693009577310576e-14,0.3152701781766217,3.500392515065622e-46,0.44657453147793014
134.5,0.4536726681054677,0.45683785867997784,0.0013993523956957743,0.15182328546356094,7.751852793450198e-14,0.30361522082064357,4.3945690818688044e-45,0.45543850628428206
135.0,0.4634028678576711,0.46656805843218124,0.00031105307045581343,0.17402181617908186,3.6215928825011033e-13,0.2922351891822814,5.244770168947182e-44,0.46625700536172543
135.5,0.47479944068012125,0.4779646312546314,-0.0009382039142769583,0.19776696631543447,1.6020158842884876e-12,0.28113586885187186,5.955845532474596e-43,0.47890283516890836
136.0,0.4880520091154638,0.49121719968997396,-0.0019817637498423246,0.2228771506431143,6.7169979765689534e-12,0.270321812789985,6.441029744890521e-42,0.4931989634398163
136.5,0.5034925106127409,0.5066577011872511,-0.002262064087940052,0.2491233445924466,2.6722869133099504e-11,0.2597964206560217,6.639606486850156e-41,0.5089197652751911
137.0,0.5211414663286205,0.5243066569031306,-0.0014874426634202687,0.2762320824343485,1.0098085427584255e-10,0.24956201703122155,6.529457240608795e-40,0.5257940995665509
137.5,0.5403882722558048,0.5435534628303149,4.3278277627845085e-05,0.3038902560414688,3.6281254508865807e-10,0.23961992814840574,6.130904694018303e-39,0.5435101845526871
138.0,0.5598965693841913,0.5630617599587014,0.0013396111120504983,0.3317515908118049,1.2406317017406815e-09,0.22997055679421433,5.501010638002524e-38,0.561722148846651
138.2,0.5656838125807762,0.5688490031552863,-0.00021413375816781155,0.34287043911680526,2.0012740756971475e-09,0.22619269579537477,1.3066646134769573e-37,0.5690631369134541
138.4,0.5739377679015647,0.5771029584760748,0.0007035063882318005,0.35393790675029957,3.20351716775532e-09,0.22246154213402627,3.0818203954675914e-37,0.576399452087843
138.6,0.5813522699788202,0.5845174605533303,0.0008113927747921412,0.36492905068296405,5.0889790505448226e-09,0.218777012006595,7.21761994812755e-37,0.5837060677785382
138.8,0.5884939752638925,0.5916591658384026,0.0007014385431023396,0.37581871623060903,8.023123950492319e-09,0.21513900304156727,1.678595092125601e-36,0.5909577272953003
139.0,0.595818876735897,0.5989840673104071,0.0008550173788522963,0.3865816423959168,1.255426998399609e-08,0.21154739498136807,3.876901180386496e-36,0.5981290499315548
139.2,0.6033242788031387,0.6064894693776488,0.001294830855454343,0.39719256867070163,1.9498456163669927e-08,0.20800205035303668,8.892661754756372e-36,0.6051946385221945
139.4,0.6107770006406291,0.6139421912151393,0.0018130034137446849,0.4076263426134393,3.006043433904488e-08,0.20450281512752097,2.0258548314163456e-35,0.6121291878013946
139.6,0.6171434831240521,0.6203086736985622,0.0014010808145441533,0.4178580275119557,4.6004656204064475e-08,0.20104951936740617,4.583903335763298e-35,0.6189075928840181
139.8,0.6236715917724786,0.6268367823469887,0.0013317251470741365,0.42786300944219724,6.989480246208e-08,0.19764197786291482,1.030229708034012e-34,0.6255050571999146
140.0,0.6299303098390971,0.6330955004136073,0.001198301190273754,0.4376171030408717,1.0542639617086852e-07,0.1942799907560656,2.299984546235715e-34,0.6318971992233335
140.2,0.6353577993581312,0.6385229899326413,0.0004628325725389848,0.44709665532261794,1.578846302858134e-07,0.19096334415285415,5.100685815552038e-34,0.6380601573601024
140.4,0.6410459523625505,0.6442111429370606,0.00024045055412114102,0.45627864689054326,2.3476901878733397e-07,0.18769181072337746,1.1237389854571126e-33,0.6439706923829395
140.6,0.6459281774461381,0.6490933680206482,-0.0005129188200020396,0.4651407899126654,3.466381618547934e-07,0.18446515028982302,2.4595507744133317e-33,0.6496062868406502
140.8,0.6506815058146139,0.6538466963891241,-0.001098544520696798,0.4736616222654648,5.082421035062846e-07,0.18128311040225256,5.348348484553439e-33,0.6549452409098209
141.0,0.6553025022100163,0.6584676927845264,-0.0014990714233436009,0.4818205972789818,7.400267306291712e-07,0.1781454269021576,1.1555190045804432e-32,0.65996676420787
141.2,0.659458882506383,0.6626240730808931,-0.0020269900630640603,0.489598168555589,1.0701146290642523e-06,0.17505182447373907,2.4805486704467767e-32,0.6646510631439572
141.4,0.6632527643860427,0.6664179549605529,-0.0025614684881309913,0.4969758693758782,1.5368898857676847e-06,0.1720020171829199,5.291164872667052e-32,0.6689794234486839
141.6,0.6665009747077127,0.6696661652822229,-0.0032681223123043335,0.5039363862499829,2.192340462931397e-06,0.16899570900408134,1.1215204062373214e-31,0.6729342875945272
141.8,0.6705295955757011,0.6736947861502113,-0.002804540745348194,0.5104636262203024,3.106340715030435e-06,0.16603259433454204,2.3622981983990465e-31,0.6764993268955595
142.0,0.6727970379640272,0.6759622285385374,-0.003697279617777882,0.5165427775716602,4.372087840343766e-06,0.16311235849681469,4.944849378803015e-31,0.6796595081563153
142.2,0.6766092598956746,0.6797744504701847,-0.0026267043540658674,0.5221603636568987,6.112938674998882e-06,0.16023467822867693,1.0286822176821706e-30,0.6824011548242506
142.4,0.6785556693759093,0.6817208599504194,-0.002991142735823127,0.527304289599172,8.490925954431946e-06,0.15739922216111613,2.1268559225821134e-30,0.6847120026862425
142.6,0.6805520296831652,0.6837172202576753,-0.002864029977094229,0.5319638816863499,1.1717264209373487e-05,0.1546056512842103,4.370612384083801e-30,0.6865812502347696
142.8,0.682181815788689,0.6853470063631991,-0.002652597547717961,0.536129919327374,1.6065182526211762e-05,0.1518536194010169,8.927142312537232e-30,0.6879996039109171
143.0,0.683234509077841,0.6863996996523511,-0.002559618853481327,0.5397946594946459,2.1885441620949094e-05,0.14914277356956562,1.8124539738200984e-29,0.6889593185058325
143.2,0.6846726214522748,0.687837812026785,-0.0016164210390309242,0.5429518536301507,2.9624902630731775e-05,0.14647275453303443,3.657835335686772e-29,0.6894542330658159
143.4,0.6856269077553202,0.6887920983298303,-0.0006877043646069669,0.5455967570454284,3.984851078054976e-05,0.14384319713822835,7.33841184591513e-29,0.6894798026944373
143.6,0.6848029701624648,0.687968160736975,-0.0010649659361949837,0.5477261308964329,5.3265034276315346e-05,0.14125373074246086,1.4635877558252841e-28,0.68903312667317
143.8,0.6847329753450164,0.6878981659195266,-0.00021480740542567656,0.5493382368632177,7.075685277867543e-05,0.13870397960895584,2.901964251137351e-28,0.6881129733249522
144.0,0.6827268628211433,0.6858920533956534,-0.0008277486221429653,0.5504328247109495,9.341401593879005e-05,0.13619356329090818,5.72057473004446e-28,0.6867198020177964
144.2,0.6817759809425651,0.6849411715170752,8.53888738244768e-05,0.551011112952662,0.0001225726862705092,0.13372209700431825,1.1211898453202162e-27,0.6848557826432508
144.4,0.6789204090564898,0.6820855996309999,-0.0004392131720208914,0.5510757628750571,0.00015985793821090015,0.13128919198975275,2.184881921697058e-27,0.6825248128030208
144.6,0.6763005255071737,0.6794657160816838,-0.00026681671151007613,0.5506308462263428,0.00020723070368404144,0.12889445586316706,4.233537497600933e-27,0.6797325327931939
144.8,0.6735764861566811,0.6767416767311912,0.00025533844357517044,0.5496818068993173,0.0002670384323609978,0.12653749295593772,8.156853103898591e-27,0.6764863382876161
145.0,0.6696628910677467,0.6728280816422568,3.2691251951377787e-05,0.5482354169735072,0.0003420687725297559,0.12421790464426846,1.5627974590905118e-26,0.6727953903903054
145.2,0.6656713000675156,0.6688364906420258,0.0001658681880836177,0.5462997275069928,0.0004356052788387194,0.12193528966811064,2.97755970694799e-26,0.6686706224539422
145.4,0.662312510752844,0.6654777013273542,0.0013529585743206063,0.5438840144915473,0.0005514838217118471,0.11968924443977433,5.641736005042013e-26,0.6641247427530336
145.6,0.657430775403382,0.6605959659778922,0.0014237342131016018,0.5409987204037866,0.0006941480186152687,0.11747936334238879,1.0631050549794426e-25,0.6591722317647906
145.8,0.6523648176744112,0.6555300082489214,0.001700675788806616,0.5376553918001888,0.0008687016415496976,0.11530523901837625,1.9923574677030815e-25,0.6538293324601148
146.0,0.6466278529660212,0.6497930435405314,0.0016790118838315715,0.533866613415128,0.00108095559345322,0.11316646264811864,3.713662086033477e-25,0.6481140316566998
146.2,0.6406695458787747,0.6438347364532848,0.0017887062987106406,0.5296459392284999,0.0013374667070912296,0.11106262421898302,6.884902748874163e-25,0.6420460301545742
146.4,0.6344772416722788,0.637642432246789,0.001995733163998148,0.5250078209732257,0.0016455653246861854,0.10899331278487885,1.2696080788381384e-24,0.6356466990827908
146.6,0.6273529765853129,0.630518167159823,0.0015791475019687473,0.5199675345530579,0.0020133683882598234,0.10695811671653657,2.328809682425761e-24,0.6289390196578543
146.8,0.6200244403008799,0.62318963087539,0.0012421274612300914,0.5145411048376852,0.0024497746338096866,0.10495662394266506,4.2491950082453005e-24,0.6219475034141599
147.0,0.6134361149533595,0.6166013055278696,0.001903215588787699,0.5087452292955985,0.0029644384612948606,0.10298842218218848,7.712646729655247e-24,0.6146980899390819
147.2,0.6049454652931794,0.6081106558676895,0.0008926366148193088,0.5025972009153628,0.0035677191697829863,0.10105309916772455,1.3926435637618988e-23,0.6072180192528702
147.4,0.5972138572488171,0.6003790478233273,0.0008433715866563718,0.49611483085345137,0.004270602522722115,0.09915024286049748,2.5016802625053087e-23,0.5995356762366709
147.6,0.5891134100578383,0.5922786006323485,0.0005981956867497917,0.4893163712315443,0.005084592057192837,0.09727944165686155,4.4708935203464783e-23,0.5916804049455987
147.8,0.5799133920798643,0.5830785826543744,-0.0006037086026845495,0.4822204384885961,0.0060215681818507555,0.0954402845866121,7.94955545001927e-23,0.583682291257059
148.0,0.5718902806957049,0.5750554712702151,-0.0005164418283176708,0.4748459376733198,0.007093613921937092,0.09363236150327588,1.4063471170061653e-22,0.5755719130985327
148.2,0.5634545227595819,0.566619713334092,-0.000760345131536555,0.4672119880410581,0.008312807158022517,0.09185526326654794,2.475474405685382e-22,0.5673800584656286
148.4,0.5551683394889756,0.5583335300634857,-0.0008038824993268356,0.4593378502959124,0.009690980349832299,0.09010858191706786,4.335663110938574e-22,0.5591374125628126
148.6,0.5475623435061657,0.5507275340806759,-0.00014668256650007816,0.4512428557944027,0.011239450009065075,0.08839191084370814,7.556116186887706e-22,0.550874216647176
148.8,0.5397110085071932,0.5428761990817034,0.00025629659007131433,0.4429463380013218,0.012968719546760583,0.08670484494354969,1.3103956872196612e-21,0.5426199024916321
149.0,0.5324513392520215,0.5356165298265316,0.0012138220664486,0.4344675664620877,0.014888160523261293,0.08504698077473402,2.26142204956594e-21,0.534402707760083
149.2,0.5248521667598247,0.5280173573343349,0.0017680783872413564,0.42582568352877886,0.01700567871595948,0.08341791670235511,3.8837442942803055e-21,0.5262492789470935
149.4,0.517861525436442,0.5210267160109522,0.002842446194024073,0.4170396440498134,0.019327372729538966,0.0818172530375757,6.63779540744686e-21,0.5181842698169281
149.6,0.5101595485524089,0.513324739126919,0.003094794711196558,0.40812815820574105,0.0218571940398429,0.08024459217013848,1.12905631880537e-20,0.5102299444157224
149.8,0.5031227012372975,0.5062878918118077,0.0038820971510596936,0.39910963764630153,0.02459661832000516,0.07869953869444131,1.9113491675843777e-20,0.502405794660748
150.0,0.4947989750880271,0.49796416566253726,0.0032359824927558622,0.3900021450569673,0.027544338583461666,0.07718169952935242,3.220410303027839e-20,0.4947281831697814
150.5,0.47707531084404864,0.4802405014185588,0.003989723550713586,0.3669590088726062,0.035788162073275565,0.07350360692196342,1.162646095285933e-19,0.4762507778678452
151.0,0.4580977655286712,0.46126295610318135,0.0024072194915920053,0.3437322630877209,0.045136336450831524,0.06998713707303689,4.0780572131662546e-19,0.45885573661158935
151.5,0.4401637370505517,0.4433289276250618,0.0008487376607939079,0.3205645258763979,0.05528929740540568,0.06662636668246437,1.3904002017949322e-18,0.4424801899642679
152.0,0.42224496256349087,0.425410153138001,-0.001495711328392213,0.29767507817213684,0.06581529675930611,0.06341548953495023,4.610143248720756e-18,0.4269058644663932
152.5,0.40575407397113966,0.4089192645456498,-0.002864263897038921,0.27525802419628936,0.07617668070104094,0.06034882354535845,1.4872385276143294e-17,0.41178352844268873
153.0,0.39087724637574256,0.3940424369502527,-0.0026345966788487996,0.25348126868312604,0.08577494826545116,0.05742081668052422,4.6702292873727463e-17,0.3966770336291015
153.5,0.374820002171472,0.37798519274598213,-0.003136515736087142,0.2324862387098603,0.09400941792738743,0.05462605184482141,1.4281809139853927e-16,0.3811217084820693
154.0,0.35863386511765266,0.3617990556921628,-0.002889722379140258,0.212388262862242,0.10034126439621847,0.05195925081284215,4.255084293683715e-16,0.36468877807130307
154.5,0.34076152611371013,0.3439267166882203,-0.0031192234180377754,0.19327751079574595,0.10435315202197053,0.04941527728854034,1.2356685079581427e-15,0.34704594010625806
155.0,0.32265102216090774,0.3258162127354179,-0.0021884334182146192,0.1752203916504129,0.10579511533705314,0.046989139166163,3.4990499993647937e-15,0.3280046461536325
155.5,0.3027297732556421,0.30589496383015224,-0.0016519969985813732,0.158261309639031,0.10460966112543157,0.04467599006426136,9.66573282817786e-15,0.3075469608287336
156.0,0.2821467635272326,0.28531195410174276,-0.0005166114434305702,0.14242467874252263,0.10093275660254929,0.04247113020007538,2.605761658426444e-14,0.28582856554517333
156.5,0.2608710368459376,0.26403622742044774,0.0008775422472419581,0.12771710505047024,0.09507157345502519,0.04037000666764171,6.858441037627197e-14,0.2631586851732058
157.0,0.23915666807225508,0.24232185864676525,0.0023603429818618293,0.11412965411227088,0.08746364837334426,0.038368213179112,1.7631096437451323e-13,0.23996151566490342
