wavelength,absorbance,absorbance_bk,residual_3gauss
117.0,0.7143540260351556,0.7175192166096658,-0.004546361372921859
117.5,0.7096936428608536,0.7128588334353637,-0.0038466921119985065
118.0,0.7052705510606254,0.7084357416351356,-0.0020038858719365615
118.5,0.701354246652606,0.7045194372271162,0.0012024273801884977
119.0,0.6912466194835002,0.6944118100580103,-0.0009767800951163697
119.5,0.6865101757605163,0.6896753663350265,0.0029685754147579235
120.0,0.6757321128826642,0.6788973034571744,0.0015719872296664494
120.5,0.6671303418377085,0.6702955324122186,0.0029965255028150395
121.0,0.6558658901324178,0.659031080706928,0.002347289969665045
121.5,0.6457419613838699,0.64890715195838,0.003370407042902368
122.0,0.6338911914919437,0.6370563820664539,0.003140094114063241
122.5,0.6194292523928681,0.6225944429673782,0.000711926775869065
123.0,0.607972001679218,0.6111371922537282,0.0016394957833300028
123.5,0.5934049170493683,0.5965701076238784,-0.00025681241251584996
124.0,0.5794173452297186,0.5825825358042287,-0.0013563778301097784
124.5,0.5649688328077412,0.5681340233822514,-0.0027729680613609586
125.0,0.5513439515272002,0.5545091421017103,-0.00330097432755716
125.5,0.537480395506382,0.5406455860808922,-0.004088436127018147
126.0,0.5241821325082088,0.5273473230827189,-0.004425004577657599
126.5,0.5118731024883918,0.5150382930629019,-0.003989264565247841
127.0,0.49895427361195527,0.5021194641864655,-0.0044925016861784295
127.5,0.48797740045429344,0.4911425910288036,-0.003505452070350079
128.0,0.47762840803795525,0.4807935986124654,-0.0024749867957079563
128.5,0.4677946493116962,0.4709598398862063,-0.0016563592077063483
129.0,0.45980735349099267,0.4629725440655028,0.00013041609003350274
129.5,0.4528583622557175,0.45602355283022766,0.0019192422934064535
130.0,0.4463563135691065,0.44952150414361663,0.0029568977808735464
130.5,0.4415424583844079,0.44470764895891807,0.004322474963052492
131.0,0.43730505128996927,0.4404702418644794,0.004746208222287052
131.5,0.4351473902789057,0.43831258085341585,0.0055826755429077
132.0,0.43418303668205754,0.4373482272565677,0.005811754982528672
132.5,0.4350269410326541,0.43819213160716425,0.0059358547781619975
133.0,0.4370457686807693,0.4402109592552794,0.00523645372581133
133.5,0.44061167838951554,0.4437768689640257,0.004033909122480861
134.0,0.4465668815576274,0.44973207213213756,0.0031575406741523593
134.5,0.4536726681054677,0.45683785867997784,0.0013993524160189619
135.0,0.4634028678576711,0.46656805843218124,0.00031105309053836017
135.5,0.47479944068012125,0.4779646312546314,-0.0009382038950757066
136.0,0.4880520091154638,0.49121719968997396,-0.001981763732157471
136.5,0.5034925106127409,0.5066577011872511,-0.0022620640723701735
137.0,0.5211414663286205,0.5243066569031306,-0.0014874426504964955
137.5,0.5403882722558048,0.5435534628303149,4.327828747152651e-05
138.0,0.5598965693841913,0.5630617599587014,0.0013396111185040027
138.2,0.5656838125807762,0.5688490031552863,-0.00021413375312506755
138.4,0.5739377679015647,0.5771029584760748,0.0007035063918477968
138.6,0.5813522699788202,0.5845174605533303,0.0008113927769758389
138.8,0.5884939752638925,0.5916591658384026,0.0007014385438589565
139.0,0.595818876735897,0.5989840673104071,0.0008550173781979309
139.2,0.6033242788031387,0.6064894693776488,0.0012948308534169728
139.4,0.6107770006406291,0.6139421912151393,0.0018130034103627235
139.6,0.6171434831240521,0.6203086736985622,0.001401080809867672
139.8,0.6236715917724786,0.6268367823469887,0.0013317251411644193
140.0,0.6299303098390971,0.6330955004136073,0.0011983011832025214
140.2,0.6353577993581312,0.6385229899326413,0.00046283256438861553
140.4,0.6410459523625505,0.6442111429370606,0.0002404505449843386
140.6,0.6459281774461381,0.6490933680206482,-0.0005129188300228016
140.8,0.6506815058146139,0.6538466963891241,-0.0010985445314902753
141.0,0.6553025022100163,0.6584676927845264,-0.0014990714347894452
141.2,0.659458882506383,0.6626240730808931,-0.002026990075034818
141.4,0.6632527643860427,0.6664179549605529,-0.0025614685004921034
141.6,0.6665009747077127,0.6696661652822229,-0.003268122324915246
141.8,0.6705295955757011,0.6736947861502113,-0.0028045407580631343
142.0,0.6727970379640272,0.6759622285385374,-0.0036972796304479694
142.2,0.6766092598956746,0.6797744504701847,-0.002626704366539334
142.4,0.6785556693759093,0.6817208599504194,-0.0029911427479469843
142.6,0.6805520296831652,0.6837172202576753,-0.0028640299887157106
142.8,0.682181815788689,0.6853470063631991,-0.002652597558686187
143.0,0.683234509077841,0.6863996996523511,-0.0025596188636487494
143.2,0.6846726214522748,0.687837812026785,-0.0016164210482556562
143.4,0.6856269077553202,0.6887920983298303,-0.0006877043727540055
143.6,0.6848029701624648,0.687968160736975,-0.0010649659431389846
143.8,0.6847329753450164,0.6878981659195266,-0.0002148074110520648
144.0,0.6827268628211433,0.6858920533956534,-0.0008277486263511546
144.2,0.6817759809425651,0.6849411715170752,8.538887111964044e-05
144.4,0.6789204090564898,0.6820855996309999,-0.00043921317315565034
144.6,0.6763005255071737,0.6794657160816838,-0.0002668167110281283
144.8,0.6735764861566811,0.6767416767311912,0.00025533844569791686
145.0,0.6696628910677467,0.6728280816422568,3.2691255714811795e-05
145.2,0.6656713000675156,0.6688364906420258,0.00016586819346064985
145.4,0.662312510752844,0.6654777013273542,0.0013529585812568357
145.6,0.657430775403382,0.6605959659778922,0.0014237342215124293
145.8,0.6523648176744112,0.6555300082489214,0.001700675798578466
146.0,0.6466278529660212,0.6497930435405314,0.001679011894820115
146.2,0.6406695458787747,0.6438347364532848,0.0017887063107423495
146.4,0.6344772416722788,0.637642432246789,0.0019957331768699627
146.6,0.6273529765853129,0.630518167159823,0.0015791475154515178
146.8,0.6200244403008799,0.62318963087539,0.0012421274750707978
147.0,0.6134361149533595,0.6166013055278696,0.0019032156027132263
147.2,0.6049454652931794,0.6081106558676895,0.0008926366285404441
147.4,0.5972138572488171,0.6003790478233273,0.0008433715998749092
147.6,0.5891134100578383,0.5922786006323485,0.0005981956991630843
147.8,0.5799133920798643,0.5830785826543744,-0.0006037085913752627
148.0,0.5718902806957049,0.5750554712702151,-0.0005164418184001596
148.2,0.5634545227595819,0.566619713334092,-0.0007603451232789382
148.4,0.5551683394889756,0.5583335300634857,-0.0008038824929696986
148.6,0.5475623435061657,0.5507275340806759,-0.000146682562248035
148.8,0.5397110085071932,0.5428761990817034,0.00025629659205772537
149.0,0.5324513392520215,0.5356165298265316,0.001213822066060244
149.2,0.5248521667598247,0.5280173573343349,0.001768078384426941
149.4,0.517861525436442,0.5210267160109522,0.0028424461887952557
149.6,0.5101595485524089,0.513324739126919,0.0030947947036318313
149.8,0.5031227012372975,0.5062878918118077,0.0038820971413064953
150.0,0.4947989750880271,0.49796416566253726,0.003235982481030353
150.5,0.47707531084404864,0.4802405014185588,0.003989723535428702
151.0,0.4580977655286712,0.46126295610318135,0.0024072194753831377
151.5,0.4401637370505517,0.4433289276250618,0.0008487376468079844
152.0,0.42224496256349087,0.425410153138001,-0.0014957113370143715
152.5,0.40575407397113966,0.4089192645456498,-0.002864263897739361
153.0,0.39087724637574256,0.3940424369502527,-0.002634596670168854
153.5,0.374820002171472,0.37798519274598213,-0.0031365157180128223
154.0,0.35863386511765266,0.3617990556921628,-0.0028897223531940686
154.5,0.34076152611371013,0.3439267166882203,-0.0031192233870906416
155.0,0.32265102216090774,0.3258162127354179,-0.0021884333860515692
155.5,0.3027297732556421,0.30589496383015224,-0.001651996969307623
156.0,0.2821467635272326,0.28531195410174276,-0.0005166114208379757
156.5,0.2608710368459376,0.26403622742044774,0.0008775422602300686
157.0,0.23915666807225508,0.24232185864676525,0.0023603429835695466
157.5,0.21836281927315748,0.22152800984766766,0.0048016540607812574
158.0,0.1967196776488677,0.19988486822337787,0.005930190393404533
158.5,0.17482178434202109,0.17798697491653126,0.005875175514666597
159.0,0.153229503742158,0.15639469431666816,0.0048057110356450605
159.5,0.13341085468827843,0.1365760452627886,0.003896790121211524
160.0,0.1133910425292795,0.11655623310378968,0.0009886355421417914
160.5,0.09541527388863169,0.09858046446314186,-0.0017534972968372836
161.0,0.0801064441488184,0.08327163472332857,-0.0036944170919893105
161.5,0.06575476155244382,0.068919952126954,-0.00645822534169968
162.0,0.05390233900332687,0.05706752957783704,-0.00836502319410077
162.5,0.0434401069044052,0.046605297478915376,-0.01035473405983628
163.0,0.035363538889746124,0.0385287294642563,-0.011249436679082701
163.5,0.028723787040801772,0.031888977615311946,-0.011816445771492254
164.0,0.023494327552271384,0.026659518126781558,-0.011911701806228907
164.5,0.01917201075353825,0.022337201328048423,-0.01188485370981665
165.0,0.015832230244578086,0.01899742081908826,-0.01152697264636102
165.5,0.012987414811232076,0.016152605385742248,-0.011212505089533358
166.0,0.010521342049080012,0.013686532623590184,-0.010963773003589632
166.5,0.009011981305346074,0.012177171879856246,-0.01012601143491369
167.0,0.008413814219963437,0.011579004794473609,-0.008682535370066444
167.5,0.006832620029105079,0.009997810603615251,-0.00847742366583161
168.0,0.005462661650404356,0.008627852224914528,-0.008276012727854986
168.5,0.004971863337752036,0.008137053912262208,-0.007377723160743286
169.0,0.004525255555827864,0.007690446130338037,-0.00659097723561345
169.5,0.004923494721260734,0.008088685295770906,-0.005093383003757364
170.0,0.004891662927450248,0.00805685350196042,-0.004141937259832853
170.5,0.004449600313338712,0.0076147908878488844,-0.0037019425127712523
171.0,0.0035996505691484088,0.006764841143658581,-0.003758706049886539
171.5,0.0028391945262723323,0.006004385100782505,-0.0038046007999574666
172.0,0.0029163013647585815,0.006081491939268754,-0.003083121091306023
172.5,0.0029928211314550783,0.006158011705965251,-0.0024255800398048036
173.0,0.0030294414944698807,0.006194632068980053,-0.0018659026238062766
173.5,0.002822096766420139,0.005987287340930311,-0.0016041083345126484
174.0,0.0021295768355179766,0.005294767410028149,-0.0018786210604834772
174.5,0.0023845601372788064,0.005549750711788979,-0.0012551694732200122
175.0,0.0025757219455089246,0.005740912520019097,-0.0007446152515335324
175.5,0.0024965745953661085,0.005661765169876281,-0.000554041891828028
176.0,0.0028032233944404097,0.005968413968950582,-2.8910366519223005e-05
176.5,0.002350241828083451,0.005515432402593624,-0.0003170689496106039
177.0,0.0030125904679387415,0.006177781042448914,0.0004533148582620125
177.5,0.0027651711643023936,0.005930361738812566,0.0002534974501388022
178.0,0.003441338580045761,0.006606529154555934,0.000912902061627723
178.5,0.0035722480115591743,0.006737438586069347,0.0009587396837346983
179.0,0.0036939985842975834,0.006859189158807756,0.0009234621462496538
179.5,0.004299773903573434,0.007464964478083607,0.0012972402328528185
180.0,0.0040722064480760494,0.007237397022586222,0.0007606796431096768
180.5,0.005002357767121153,0.008167548341631326,0.0013041496300497946
181.0,0.005305769495379867,0.00847096006989004,0.0011441592468302928
181.5,0.005339969487529581,0.008505160062039753,0.0006411438724372616
182.0,0.00587534154739553,0.009040532121905703,0.0005705489017860839
182.5,0.006069102598768798,0.00923429317327897,9.693467022314946e-05
183.0,0.007072242732022819,0.010237433306532992,0.00038094186540025415
183.5,0.007386634168328806,0.01055182474283898,-6.368749061526346e-05
184.0,0.007966479656279024,0.011131670230789197,-0.00026886741155390977
184.5,0.008642338427454098,0.01180752900196427,-0.00038846263136809236
185.0,0.009283440098445731,0.012448630672955903,-0.0005363997030804705
185.5,0.010463093849652,0.013628284424162172,-0.00012176944148977256
186.0,0.010989465378391057,0.014154655952901229,-0.0003186242282992857
186.5,0.011129939726503366,0.014295130301013538,-0.0008422233736081128
187.0,0.011432303975070557,0.014597494549580729,-0.0011284610438994421
187.5,0.01175896345199372,0.014924154026503891,-0.0013002309933880137
188.0,0.012689967672909391,0.015855158247419565,-0.0007649213618756145
188.5,0.013485939712206652,0.016651130286716824,-0.0002519190058108585
189.0,0.0139006110794827,0.017065801653992872,-3.998926799801683e-07
189.5,0.013776630256424297,0.01694182083093447,-0.00016372275752838533
190.0,0.013449897590051748,0.01661508816456192,-0.0004051661866324753
190.5,0.013807927894192927,0.0169731184687031,0.00016049168156219776
191.0,0.012856870642232319,0.016022061216742493,-0.00046582710767704635
191.5,0.01284881956651028,0.016014010141020454,-3.99035575288087e-05
192.0,0.01317280740881338,0.016337997983323554,0.0008171485050303406
192.5,0.01320806249470148,0.016373253069211655,0.001472579921283617
193.0,0.012632026682638216,0.015797217257148388,0.0015905057855629331
193.5,0.012570495363158605,0.01573568593766878,0.002282542870508532
194.0,0.010755616525798064,0.013920807100308236,0.0012662983012457583
194.5,0.010018396332463993,0.013183586906974165,0.0013583359053922616
195.0,0.008295954611941473,0.011461145186451645,0.0004818462095930263
195.5,0.0066285103099813164,0.00979370088449149,-0.0003360131330459957
196.0,0.006075385908568551,0.009240576483078723,-4.782624832081438e-05
196.5,0.004860271720341657,0.00802546229485183,-0.0004404407213131605
197.0,0.003531807217393436,0.006696997791903608,-0.0009742451313583516
197.5,0.0025401519319919615,0.005705342506502134,-0.0012065265679751143
198.0,0.0017991205610529471,0.00496431113556312,-0.0012293272658230074
198.5,0.0008263968911787101,0.003991587465688883,-0.001529277376006848
199.0,0.0004936431159710757,0.0036588336904812484,-0.0012375775723875112
199.5,-8.527308224583245e-05,0.00307991749226434,-0.0012418987589668928
200.0,7.59234467715057e-05,0.003241114021281678,-0.0005563314006528305
200.5,-0.0008083709761915987,0.002356819598318574,-0.0009658378625026897
201.0,-0.0008641659844410602,0.002301024590069112,-0.0005949514871466002
201.5,-0.0009399871712405085,0.002225203403269664,-0.0002900568938895647
202.0,-0.0014571162146987827,0.0017080743598113898,-0.0004697925763141389
202.5,-0.0017615245666174585,0.001403666007892714,-0.00047713454103337494
203.0,-0.0015765891130239571,0.0015886014614862154,-3.2246109510401496e-05
203.5,-0.0012977786057084767,0.0018674119688016958,0.00047271929964647725
204.0,-0.001890539863210068,0.0012746507113001045,7.563424909996764e-05
204.5,-0.0014532511447151847,0.0017119394297949878,0.0006813647063768709
205.0,-0.0017738559624759544,0.0013913346120342182,0.0005050746851358705
205.5,-0.001742046617714625,0.0014231439567955475,0.0006599974061309732
206.0,-0.0015846061376527608,0.0015805844368574117,0.0009220625206157315
206.5,-0.001351958780700896,0.0018132317938092766,0.0012433272456831197
207.0,-0.0017300003042768088,0.0014351902702333637,0.0009401381663167465
207.5,-0.0016519528333603707,0.0015132377411498019,0.0010812768566631657
208.0,-0.00166380410549883,0.0015013864690113425,0.0011225276580055026
208.5,-0.0013254063364081315,0.001839784238102041,0.0015055906608401456
209.0,-0.001847924998688852,0.0013172655758213205,0.001020648101890826
209.5,-0.0022849605087912374,0.0008802300657189351,0.000615259910886987
210.0,-0.002187370366901257,0.0009778202076089156,0.0007395598190277528
210.5,-0.002250237943849668,0.0009149526306605044,0.0006993050072528578
211.0,-0.0021031806114055096,0.001062009963104663,0.0008655859672136788
211.5,-0.0028848245405585986,0.00028036603395157397,0.00010036879339910164
212.0,-0.0021254251791257422,0.0010397653953844303,0.0008738905865356419
212.5,-0.0029527896823664584,0.00021240089214371411,5.8751508742368715e-05
213.0,-0.0024530183232276373,0.0007121722512825352,0.0005691863761476603
213.5,-0.0026474137532741214,0.0005177768212360511,0.00038416690592850547
214.0,-0.0027651091654347054,0.0004000814090754671,0.0002747836105351269
214.5,-0.002682038677149579,0.0004831518973605936,0.0003652841033793783
215.0,-0.0026172172646686327,0.0005479733098415398,0.00043680059311189623
215.5,-0.0026749302429134344,0.0004902603315967381,0.0003851666937956819
216.0,-0.0025629426029317045,0.000602247971578468,0.000502713365895689
216.5,-0.0023497084953151685,0.000815482079195004,0.0007210638255018901
217.0,-0.0026929365376472105,0.000472254036862962,0.00038257186384858566
217.5,-0.002777220263262239,0.0003879703112479333,0.00030269437136822144
218.0,-0.0025418296407492304,0.0006233609337609422,0.0005422022380387622
218.5,-0.0029569742451591,0.00020821632935107267,0.000130919139152064
219.0,-0.0031651905745101725,0.0,-7.366420818823948e-05
219.5,-0.0028932858948353614,0.0002719046796748111,0.00020166736704418768
220.0,-0.003055855154146348,0.00010933542036382438,4.233757522780916e-05
