wavelength,absorbance,absorbance_bk,residual_3gauss,Gauss_1,Gauss_2,Gauss_3,Gauss_4,Gauss_fit
117.0,0.9609665518201971,0.9617448629293814,-0.0035085490245945206,1.3392864383784162e-06,6.39942646243533e-57,0.9652520726675375,1.9285173289557207e-142,0.965253411953976
117.5,0.9585844539556752,0.9593627650648595,0.0011802669418845557,2.410573442025576e-06,5.2156959764789166e-55,0.9581800875495329,2.2335086478229208e-139,0.958182498122975
118.0,0.9472533762772057,0.9480316873863901,-0.0018665076501555022,4.260597887974322e-06,3.794329279552667e-53,0.9498939344386577,2.2558389376726667e-136,0.9498981950365456
118.5,0.9386312083596051,0.9394095194687895,-0.0010563355468875546,7.397691927424055e-06,2.4697434334971938e-51,0.9404584573237497,1.99232117731457e-133,0.940465855015677
119.0,0.9271528160679201,0.9279311271771045,-0.0020221232814340295,1.2623086953949232e-05,1.441719459040461e-49,0.9299406273715846,1.542726996719817e-130,0.9299532504585385
119.5,0.9178566506464021,0.9186349617555865,0.00020477329919965648,2.117593900372359e-05,7.565122203731464e-48,0.918409012517383,1.0500714065201024e-127,0.9184301884563868
120.0,0.9041623111422867,0.9049406222514711,-0.0010275870417998378,3.493717607784923e-05,3.576253964487019e-46,0.9059332721171931,6.298610659250525e-125,0.9059682092932709
120.5,0.895070145922932,0.8958484570321164,0.0032080679602993767,5.670970702184028e-05,1.5263928546605434e-44,0.8925836793647951,3.3376307177661114e-122,0.892640389071817
121.0,0.878881225733858,0.8796595368430423,0.001138268220550076,9.059501016265346e-05,5.894625467166636e-43,0.8784306736123296,1.5661981570346283e-119,0.8785212686224922
121.5,0.865507837567835,0.8662861486770194,0.002599216693237927,0.00014248778197960502,2.0639680152961274e-41,0.8635444442018019,6.523698560129315e-117,0.8636869319837814
122.0,0.8483722028714568,0.8491505139806411,0.0009352564757486581,0.0002207105867927645,6.565845333619408e-40,0.8479945469180997,2.417579702732246e-114,0.8482152575048925
122.5,0.8305460716557386,0.8313243827649229,-0.0008619795879827308,0.0003368086364606231,1.9014418638677974e-38,0.8318495537164451,7.988885019424002e-112,0.8321863623529057
123.0,0.8134149219813255,0.8141932330905098,-0.0014900231119721052,0.0005065202423278969,5.022548969290206e-37,0.815176735960154,2.3592122396802706e-109,0.8156832562024819
123.5,0.7961882274837171,0.7969665385929015,-0.001826172906225887,0.0007509304695828568,1.2123800549710798e-35,0.7980417810295445,6.239635249336429e-107,0.7987927114991273
124.0,0.7775220319467827,0.7783003430559671,-0.00330600236722578,0.001097803593139583,2.6793710176348717e-34,0.7805085418300532,1.4810782841850257e-104,0.7816063454231928
124.5,0.7587854313687027,0.759563742477887,-0.004658149846582638,0.0015830738878599853,5.431179040305482e-33,0.7626388184366097,3.1616853108127863e-102,0.7642218923244697
125.0,0.7400463007010736,0.7408246118102579,-0.005920013318449269,0.0022524542673467815,1.0115619850879765e-31,0.7444921708613604,6.082144150343075e-100,0.7467446251287072
125.5,0.7226618155038702,0.7234401266130546,-0.005848734110733167,0.0031630990026986125,1.734125717048109e-30,0.7261257617210891,1.0564495562414819e-97,0.7292888607237877
126.0,0.704425518812243,0.7052038299214274,-0.0067756289541062165,0.004385231468018798,2.7409053680389433e-29,0.7075942274075148,1.6600943125050273e-95,0.7119794588755336
126.5,0.6883293196222403,0.6891076307314247,-0.005845567917558525,0.0060036224232672,4.0008485079310845e-28,0.688949576225716,2.364441212074806e-93,0.6949531986489832
127.0,0.6727640302118041,0.6735423413209884,-0.004817551675459608,0.008118781135703013,5.402041901154313e-27,0.6702411118607451,3.0580049576034517e-91,0.678359892996448
127.5,0.6583637413291171,0.6591420524383015,-0.003221031443573441,0.010847703424317014,6.757702957380724e-26,0.6515153804575579,3.597879893512966e-89,0.6623630838818749
128.0,0.6447286186837158,0.6455069297929001,-0.0016332201769566623,0.014324010418066427,7.844185278149115e-25,0.6328161395517904,3.8576430889048676e-87,0.6471401499698568
128.5,0.6329551062364777,0.633733417345662,0.0008517580255726909,0.01869731225393743,8.461777672858566e-24,0.6141843470661519,3.7758612949853477e-85,0.6328816593200893
129.0,0.6218447689133957,0.62262308002258,0.0028332669848811776,0.024131644451483233,8.49539033771835e-23,0.5956581685862157,3.379592464619843e-83,0.6197898130376989
129.5,0.6125979073689468,0.6133762184781312,0.00530036449829252,0.030802852832006778,7.94953707293347e-22,0.5772730011478319,2.770684362338033e-81,0.6080758539798387
130.0,0.6041379810463038,0.6049162921554881,0.006959934312994132,0.03889484603913526,6.94307971560179e-21,0.5590615118033587,2.083958574990782e-79,0.597956357842494
130.5,0.5970231585976401,0.5978014697068245,0.008153088364973526,0.04859469205875736,5.667817825046781e-20,0.5410536892830936,1.4403248631935283e-77,0.5896483813418509
131.0,0.5927031584321091,0.5934814695412934,0.01011795814130767,0.06008660427066737,4.3303354489627675e-19,0.5232769071293184,9.161714055311925e-76,0.5833635113999858
131.5,0.5893801341197031,0.5901584452288875,0.010857508769985591,0.07354493970794126,3.1005936679570432e-18,0.5057559967509606,5.3715462805441216e-74,0.5793009364589019
132.0,0.587784123031644,0.5885624341408283,0.010922692881672691,0.08912641233399843,2.0832869774720935e-17,0.4885133289251572,2.9072062362279343e-72,0.5776397412591556
132.5,0.5884687756722425,0.5892470867814269,0.010716383065508484,0.10696180135998,1.3151805679880017e-16,0.47156890235593835,1.4545894831789897e-70,0.5785307037159184
133.0,0.5911176471968291,0.5918959583060135,0.009808017734675434,0.12714750258303145,7.810754047373954e-16,0.4549404379883058,6.737738240727942e-69,0.5820879405713381
133.5,0.5959414004533896,0.596719711562574,0.008338910465267357,0.14973732323072092,4.3691757962385776e-15,0.4386434778665813,2.8933774588356274e-67,0.5883808010973066
134.0,0.6032724200337021,0.6040507311428864,0.006624291353948597,0.17473495237122758,2.304737382592137e-14,0.4226914874176872,1.1534770887361377e-65,0.5974264397889378
134.5,0.6120814126708071,0.6128597237799914,0.0036762182555770684,0.2020875453923943,1.1477944466384154e-13,0.40709596013190524,4.2747349844229595e-64,0.6091835055244144
135.0,0.6252484051147181,0.6260267162239025,0.002479352616205577,0.23168083990264957,5.40284070089567e-13,0.39186652370450703,1.474610242889654e-62,0.6235473636076969
135.5,0.6394559045564807,0.6402342156656651,-0.0001130023805803182,0.2633361712530904,2.4064658807255305e-12,0.37701104679074854,4.7410326928233475e-61,0.6403472180462454
136.0,0.6575137654080928,0.6582920765172772,-0.0010533496033814371,0.29680968049732376,1.0153380133784872e-11,0.3625357456131815,1.4224753407824775e-59,0.6593454261206586
136.5,0.6775487279073928,0.6783270390165772,-0.001912160649396366,0.33179390988176694,4.062364311235314e-11,0.3484452897435831,3.98776865356293e-58,0.6802391996659736
137.0,0.7008154505713192,0.7015937616805036,-0.0010710115625404137,0.3679218666272263,1.5429025909278324e-10,0.3347429064615275,1.0458154072289374e-56,0.702664773243044
137.5,0.7256006392281248,0.7263789503373091,0.00017495465261763155,0.4047735119605312,5.56844805252497e-10,0.3214304831673155,2.5688328050840013e-55,0.7262039956846915
138.0,0.7509059605117961,0.7516842716209805,0.001291095255517516,0.44188450705541615,1.9116182342722272e-09,0.3085086673984285,5.916676877112033e-54,0.750393176365463
138.2,0.7597514968878807,0.760529807997065,0.0003897247068005427,0.4566908436827691,3.08801717200056e-09,0.30344923651947825,2.0384642189598997e-53,0.7601400832902645
138.4,0.76955853611757,0.7703368472267543,0.00045843516131893747,0.47142625164253826,4.949676713123886e-09,0.29845215547322046,6.952944343686213e-53,0.7698784120654354
138.6,0.7800183643042693,0.7807966754134537,0.0012220288251980627,0.4860573202401888,7.872618373386509e-09,0.2935173184754484,2.348041882349159e-52,0.7795746465882556
138.8,0.789560393716488,0.7903387048256724,0.0011437335325621412,0.5005503640876828,1.2426053904974068e-08,0.28864459477937354,7.851363940778297e-52,0.7891949712931102
139.0,0.798844924224499,0.7996232353336834,0.0009178213424048121,0.5148715649393275,1.9464584842154745e-08,0.2838338295873662,2.5996631245554475e-51,0.7987054139912786
139.2,0.8080062281768302,0.8087845392860146,0.0007125486382547619,0.5289871154390791,3.0260836291443605e-08,0.2790848449478444,8.524168013595287e-51,0.8080719906477598
139.4,0.8179003482959325,0.8186786594051169,0.0014178082208120557,0.5428633638526676,4.669456678484478e-08,0.2743974406370704,2.7680881530417335e-50,0.8172608511843048
139.6,0.8265767113822333,0.8273550224914177,0.0011165970940956171,0.5564669588518115,7.151991317266299e-08,0.2697713950255973,8.90288177755567e-50,0.8262384253973221
139.8,0.8354668760605377,0.8362451871697221,0.0012736190811870607,0.5697649934196809,1.0873970678039852e-07,0.26520646592914726,2.8361788836758663e-49,0.834971568088535
140.0,0.843265783197133,0.8440440943063173,0.0006163917808655883,0.582725146956582,1.6412510790768335e-07,0.2607023914437619,8.949901773103693e-49,0.8434277025254517
140.2,0.8504694060347429,0.8512477171439272,-0.0003272442344450788,0.5953158246827679,2.459305653513007e-07,0.25625889076503905,2.797780481116098e-48,0.8515749613783723
140.4,0.8580178513023213,0.8587961624115057,-0.0005861619090210546,0.6075062934604203,3.6586876128408314e-07,0.2518756649913452,8.664601035437531e-48,0.8593823243205267
140.6,0.864486975043751,0.8652652861529354,-0.0015544653756065507,0.6192668131894435,5.404282057316114e-07,0.24755239791089265,2.658591995108406e-47,0.866819751528542
140.8,0.8700947292113891,0.8708730403205734,-0.0029852720609724326,0.6305687629710256,7.926379373966185e-07,0.2432887567725829,8.082605792959392e-47,0.8738583123815459
141.0,0.8763773033532318,0.8771556144624162,-0.0033146942663113688,0.6413847612783963,1.1544097490892593e-06,0.2390843930405822,2.4348704271175687e-46,0.8804703087287276
141.2,0.8816180765197613,0.8823963876289457,-0.00423300454807829,0.651688779425709,1.6696187563180964e-06,0.23493894313255861,7.268637517059969e-46,0.886629392177024
141.4,0.8859672239885008,0.8867455350976852,-0.005565139844286748,0.6614562476823219,2.398118059718164e-06,0.2308520291415903,2.150357131208273e-45,0.8923106749419719
141.6,0.8911397759771476,0.8919180870863319,-0.005572746818867547,0.6706641534409207,3.420922552843193e-06,0.22682325954172605,6.304869608214139e-45,0.8974908339051995
141.8,0.895902785969903,0.8966810970790874,-0.005467110550990251,0.6792911309127708,4.846840085833694e-06,0.22285222987722098,1.8322167540255458e-44,0.9021482076300776
142.0,0.8992020985203489,0.8999804096295333,-0.006282476571689677,0.6873175418914799,6.82087425426425e-06,0.21893852343548886,5.277641577571574e-44,0.906262886201223
142.2,0.9037876712230608,0.9045659823322452,-0.005250811539356248,0.6947255471972545,9.534770530758009e-06,0.21508171190381606,1.506926605169188e-43,0.9098167938716014
142.4,0.9064371674466111,0.9072154785557954,-0.005578286064193971,0.701499168485945,1.3240124131245601e-05,0.21128135600991318,4.265403562931491e-43,0.9127937646199894
142.6,0.909622737572081,0.9104010486812654,-0.004778562156725452,0.7076243401806042,1.826451100276092e-05,0.20753700614638393,1.1969345888756992e-42,0.9151796108379908
142.8,0.9116650249678137,0.912443336076998,-0.004518849398190361,0.7130889513570617,2.503113892368558e-05,0.20384820297920292,3.330038140538669e-42,0.9169621854751884
143.0,0.9132984038402077,0.914076714949392,-0.004054723118754433,0.7178828774884436,3.408253937510601e-05,0.20021447804032777,9.185917288034253e-42,0.9181314380681465
143.2,0.9148572489947356,0.91563556010392,-0.003043905053956797,0.7219980020261085,4.6108827219961075e-05,0.19663535430454823,2.5125586887586224e-41,0.9186794651578768
143.4,0.9158235740987177,0.9166018852079021,-0.0019986704463775817,0.7254282278653065,6.198103824517683e-05,0.193110346750728,6.814843514117432e-41,0.9186005556542797
143.6,0.9149742363955305,0.9157525475047149,-0.002138684223144671,0.7281694788126203,8.279000766939385e-05,0.18963896290756993,1.8330190439283054e-40,0.9178912317278596
143.8,0.9145965234244791,0.9153748345336634,-0.0011754512575026244,0.7302196912381989,0.00010989116890729017,0.18622070338405994,4.8896155343336155e-40,0.916550285791166
144.0,0.9122424133877712,0.9130207244969556,-0.001558089570742438,0.7315787961585144,0.00014495552441361773,0.18285506238477,1.2936122729808382e-39,0.914578814067698
144.2,0.9109265146090216,0.911704825718206,-0.0002754214094856655,0.7322486920544523,0.00019002686306722645,0.17954152821017208,3.394533202764943e-39,0.9119802471276917
144.4,0.9071535902533449,0.9079319013625292,-0.0008284762302807058,0.7322332087844685,0.00024758506617671367,0.1762795837421647,8.835419209510863e-39,0.9087603775928099
144.6,0.9036774772683202,0.9044557883775045,-0.00047159659400874965,0.7315380630030913,0.0003206150534338398,0.17306870691498807,2.2812342329146915e-38,0.9049273849715133
144.8,0.8995175162264304,0.9002958273356148,-0.00019602994704115417,0.7301708055408365,0.00041268057009197174,0.16990837117172755,5.842954271757672e-38,0.9004918572826559
145.0,0.8949812312626039,0.8957595423717882,0.0002927336131773872,0.7281407612424585,0.0005280016095350218,0.16679804590661723,1.4847012042240384e-37,0.8954668087586108
145.2,0.8898344931212293,0.8906128042304137,0.0007451117336395585,0.7254589617961726,0.0006715338072684629,0.16373719689333305,3.742945409215776e-37,0.8898676924967741
145.4,0.8849508787386419,0.8857291898478262,0.0020167833877349217,0.7221380721169639,0.000849047643620241,0.16072528669950717,9.362234019655617e-37,0.8837124064600913
145.6,0.8788722599512703,0.8796505710604546,0.0026292803322268687,0.7181923108722662,0.0010672047682874553,0.15776177508767408,2.323595814883134e-36,0.8770212907282278
145.8,0.8716002424559569,0.8723785535651413,0.00256144017368487,0.7136373657581239,0.001333628230466959,0.1548461194028655,5.722425097610193e-36,0.8698171133914564
146.0,0.8646552156938855,0.8654335268030698,0.003308484818742019,0.7084903041485497,0.0016569628886856855,0.1519777749470924,1.3984960745137863e-35,0.8621250419843278
146.2,0.85644461927554,0.8572229303847244,0.003250333479612233,0.702769479750144,0.0020469218140342334,0.14915619534093388,3.3917745553976704e-35,0.8539725969051122
146.4,0.8485321403977093,0.8493104515068937,0.003920868613747519,0.6964944358983741,0.0025143141223092787,0.14638083287246273,8.163945683334459e-35,0.8453895828931461
146.6,0.8393074916813411,0.8400858027905255,0.003677808415430306,0.6896858061314041,0.003071049409932001,0.14365113883375913,1.9503083245385503e-34,0.8364079943750952
146.8,0.8298456969163995,0.8306240080255839,0.0035621176467933724,0.6823652126720584,0.003730113861510971,0.1409665638452211,4.624437825418033e-34,0.8270618903787905
147.0,0.8202368439489677,0.821015155058152,0.003627920272887164,0.6745551634389891,0.004505513178335697,0.13832655816794004,1.0884021958419252e-33,0.8173872347852649
147.2,0.8093820131526788,0.8101603242618631,0.002738626285055834,0.6662789481942131,0.00541217777823999,0.1357305720043542,2.5428268545563963e-33,0.8074216979768073
147.4,0.799290810678688,0.8000691217878724,0.002864705320312466,0.6575605344166632,0.006465826263457902,0.1331780557874388,5.89743329928572e-33,0.7972044164675599
147.6,0.7881947146556445,0.7889730257648289,0.0021973178747117794,0.6484244634701977,0.007682783961253143,0.1306684604586663,1.357844194530185e-32,0.7867757078901171
147.8,0.7760835262931347,0.7768618374023191,0.0006850976388194097,0.6388957476101556,0.009079754418372207,0.12820123773497197,3.103838497525921e-32,0.7761767397634997
148.0,0.7655898387963502,0.7663681499055346,0.0009189981270123493,0.6289997683454595,0.01067354306808335,0.1257758403649795,7.044205547644745e-32,0.7654491517785222
148.2,0.7543659985438397,0.755144309653024,0.0005096767680928815,0.6187621766434855,0.012480733866734216,0.12339172237471147,1.5873399477099676e-31,0.7546346328849312
148.4,0.7434560495996394,0.7442343607088238,0.0004599044934900931,0.6082087954332644,0.014517321479031203,0.12104833930303807,3.5516815922712136e-31,0.7437744562153337
148.6,0.733432342421744,0.7342106535309284,0.0013016767488895908,0.5973655248289472,0.016798303525994086,0.11874514842709746,7.89123952930113e-31,0.7329089767820388
148.8,0.7233110814437945,0.7240893925529789,0.002012293684070743,0.5862582504605156,0.019337239430474024,0.11648160897791844,1.7411025966940446e-30,0.7220770988689081
149.0,0.7132570556648842,0.7140353667740685,0.0027196447415850367,0.5749127552628105,0.022145784423173272,0.1142571823464997,3.814978464580851e-30,0.7113157220324835
149.2,0.7036015430699942,0.7043798541791786,0.0037206776433015287,0.563354635037065,0.025233209218250483,0.11207133228056161,8.301735789765727e-30,0.7006591765358771
149.4,0.694133387062166,0.6949116981713503,0.004773037400736868,0.5516092180621556,0.028605917636239715,0.10992352507221817,1.7942177867198229e-29,0.6901386607706135
149.6,0.6841297071066129,0.6849080182157973,0.005126323537671507,0.5397014889955066,0.03226697594582403,0.10781322973679512,3.851510022915087e-29,0.6797816946781258
149.8,0.6742199973983835,0.6749983085075678,0.005386704237431372,0.5276560172665895,0.03621566882052621,0.10573991818302074,8.212144272855037e-29,0.6696116042701364
150.0,0.6639208978357478,0.6646992089449322,0.0050521559650398284,0.5154968901295364,0.04044709747553259,0.1037030653748234,1.7392886404755107e-28,0.6596470529798923
150.5,0.6404562128050125,0.6412345239141969,0.005523739717614884,0.48475483680668013,0.05218892322566415,0.09876702416423762,1.1029487871551225e-27,0.635710784196582
151.0,0.6155363428771774,0.6163146539863618,0.0031245318901789165,0.4537983054528041,0.06534427782754203,0.09404753881583677,6.713918957993018e-27,0.6131901220961828
151.5,0.5908257518779421,0.5916040629871264,-0.0003198044143843948,0.4229495893119376,0.0794375840952031,0.08953669399437011,3.9258403823778563e-26,0.5919238674015108
152.0,0.5672114614694781,0.5679897725786625,-0.0035529502036021343,0.39249936507595296,0.09381662844348904,0.08522672926282257,2.206572346185905e-25,0.5715427227822646
152.5,0.5450833956390568,0.5458617067482412,-0.0056513064506676924,0.3627043189927883,0.10769864556871477,0.08111004863740576,1.192945114224741e-24,0.5515130131989089
153.0,0.5243568580160721,0.5251351691252565,-0.006071292498403991,0.3337858677926898,0.12024136519693339,0.07717922863403726,6.207574944777096e-24,0.5312064616236605
153.5,0.5030695897040429,0.5038479008132273,-0.006138965296856536,0.30592987468477867,0.13062996650231087,0.07342702492299423,3.110999610122333e-23,0.5099868661100838
154.0,0.48097484910332183,0.4817531602125062,-0.005547521945727607,0.2792872407718166,0.13816706368320444,0.06984637770321271,1.5025418867673032e-22,0.4873006821582338
154.5,0.45699584327718856,0.4577741543863729,-0.004983044767060907,0.2539752397758263,0.1423515434752258,0.06643041590238175,6.997921249613965e-22,0.46275719915343383
155.0,0.4323980391398425,0.43317635024902684,-0.0030092628530135057,0.23007945833943896,0.14293369445896828,0.0631724603036331,3.144775535895167e-21,0.43618561310204035
155.5,0.40549003256596294,0.4062683436751473,-0.0013921517144374618,0.2076562045256156,0.13993826516971003,0.06006602569425916,1.3644132246683766e-20,0.40766049538958476
156.0,0.3776863230167935,0.37846463412597786,0.0009716846433667214,0.18673525250212022,0.13365287485391783,0.05710482212657306,5.718612948456121e-20,0.37749294948261114
156.5,0.3489777745002832,0.3497560856094676,0.0035652951433695623,0.1673228007233174,0.1245852343670118,0.054282755375768814,2.3167131718558334e-19,0.346190790466098
157.0,0.31983063814802326,0.3206089492572076,0.006212894024996585,0.1494045331676447,0.11339759539007431,0.05159392667449203,9.076833980750867e-19,0.31439605523221104
157.5,0.291495654366485,0.29227396547566936,0.009462867545247666,0.1329486873638585,0.10082977876776546,0.049032631798797716,3.441251851196981e-18,0.2828110979304217
