wavelength,absorbance,absorbance_bk,residual_3gauss,Gauss_1,Gauss_2,Gauss_3,Gauss_4,Gauss_fit
117.0,1.1780336804021088,1.178701769939007,0.0026028251261387414,2.2194124257159503e-06,1.063939065609554e-56,1.1760967254004426,6.15457268730039e-164,1.1760989448128683
117.5,1.1742218528456765,1.1748899423825747,0.008025834976864932,3.939430402271262e-06,8.481586875555197e-55,1.1668601679753074,2.1833343882160307e-160,1.1668641074057098
118.0,1.1469284215768698,1.147596511113768,-0.008570833441587045,6.869429335818036e-06,6.039715546456455e-53,1.1561604751260193,6.606878398655143e-157,1.156167344555355
118.5,1.139039865151707,1.1397079546886053,-0.004382464906752537,1.1772475923625112e-05,3.850970218803217e-51,1.1440786471194342,1.7107683057606914e-153,1.1440904195953578
119.0,1.1312776459810931,1.1319457355179914,0.001227830662073437,1.9835309937505652e-05,2.203682851381911e-49,1.1306980695459805,3.802234117614621e-150,1.130717904855918
119.5,1.1141974790659055,1.1148655686028037,-0.001271167557295616,3.286959931952323e-05,1.134332944870316e-47,1.1161038665607799,7.27516593195345e-147,1.1161367361600993
120.0,1.0972320754291744,1.0979001649660727,-0.0025357124563123445,5.359083024293555e-05,5.263913346417422e-46,1.100382286592142,1.2019251269242396e-143,1.100435877422385
120.5,1.0847965483964817,1.0854646379333799,0.0017585179697958697,8.599633503883498e-05,2.2069648726925571e-44,1.0836201236285452,1.7194426472848548e-140,1.083706119963584
121.0,1.068390378993604,1.0690584685305022,0.0030184256732430637,0.00013586635292704057,8.377617774621929e-43,1.0659041765043322,2.13594976003665e-137,1.0660400428572592
121.5,1.0497424688085328,1.050410558345431,0.0028783972158534787,0.00021141317468613408,2.8852454063347356e-41,1.0473207479548914,2.310348182408806e-134,1.0475321611295776
122.0,1.0284083777570752,1.0290764672939734,0.0007971800453463462,0.0003241026399033796,9.033582774635348e-40,1.0279551846087236,2.1817768270011358e-131,1.028279287248627
122.5,1.0075844485092311,1.0082525380461294,-0.00012858924858738519,0.0004896687645688024,2.5763813728765055e-38,1.007891458530148,1.8035460350119937e-128,1.0083811272947167
123.0,0.9843873056641651,0.9850553952010632,-0.002885730539917364,0.0007293353166024184,6.706119536079677e-37,0.9872117904243781,1.3083997745725867e-125,0.9879411257409806
123.5,0.9654316338405167,0.9660997233774148,-0.0009678378684548905,0.0010712470782661338,1.5961088025450615e-35,0.9659963141676036,8.350985557825041e-123,0.9670675612458697
124.0,0.9393732891340297,0.9400413786709279,-0.005833501181626288,0.0015520979240522667,3.480039540371142e-34,0.9443227819285018,4.7009195240938536e-120,0.9458748798525541
124.5,0.9176593839157242,0.9183274734526223,-0.006157758007602099,0.002218922656853449,6.963356448325127e-33,0.922266308803371,2.3394627591014625e-117,0.9244852314602244
125.0,0.8940588048487143,0.8947268943856124,-0.008303256444247453,0.0031309952362070076,1.2809448853555918e-31,0.8998991555936529,1.0317045905221788e-114,0.9030301508298598
125.5,0.8739900206370814,0.8746581101739795,-0.006994186582433115,0.004361748646897984,2.1700363876240095e-30,0.8772905481095147,4.041066423161395e-112,0.8816522967564127
126.0,0.8528173188500243,0.8534854083869224,-0.00702172568168391,0.006000602884483839,3.391243329200036e-29,0.8545065311841226,1.4090028978124464e-109,0.8605071340686063
126.5,0.8319724601156246,0.8326405496525228,-0.007123865464632728,0.008154559689923114,4.896891839985628e-28,0.8316098554272324,4.382842331972746e-107,0.8397644151171555
127.0,0.8125653260288599,0.813233415565758,-0.00637587764611347,0.010949398581371811,6.544101384220358e-27,0.8086598946304997,1.2188776494420752e-104,0.8196092932118715
127.5,0.7963293187433204,0.7969974082802185,-0.0032454749440051778,0.014530291566934793,8.106441817617949e-26,0.7857125916572889,3.036944692986065e-102,0.8002428832242237
128.0,0.7803833425741118,0.7810514321110099,-0.0008306453810408287,0.01906164688898477,9.322425525326075e-25,0.7628204306030659,6.793268978142676e-100,0.7818820774920507
128.5,0.7642397652864814,0.7649078548233795,0.00014942365445169692,0.024725998173416676,9.96778996811679e-24,0.7400324329955111,1.3669715951338887e-97,0.7647584311689278
129.0,0.7521634378580707,0.7528315273949688,0.003715574877610206,0.031721776704866395,9.923814847186299e-23,0.7173941758124922,2.4793276419371155e-95,0.7491159525173586
129.5,0.7409583776836963,0.7416264672205944,0.006418795618144291,0.04025984247438265,9.212823163264833e-22,0.6949478291280675,4.061055936652629e-93,0.7352076716024502
130.0,0.7314267153781692,0.7320948049150673,0.008803889585172753,0.050558704081743296,7.986416168616248e-21,0.6727322112481512,6.018576830786035e-91,0.7232909153298945
130.5,0.7231188040843615,0.7237868936212596,0.010165607427389145,0.0628384269283305,6.473717362229682e-20,0.6507828592655399,8.085378287064818e-89,0.7136212861938704
131.0,0.7176347770305603,0.7183028665674585,0.01185744329598315,0.07731331022572559,4.913405351112511e-19,0.6291321130457497,9.863786014431902e-87,0.7064454232714753
131.5,0.7130297672223592,0.7136978567592573,0.01170514451705651,0.09418350149443121,3.4963129512302795e-18,0.6078092107477696,1.0946929809224785e-84,0.7019927122422008
132.0,0.7116545042660257,0.7123225938029238,0.011856393183461544,0.11362580653432383,2.3355881074380964e-17,0.5868403940851384,1.1071309914103144e-82,0.7004662006194623
132.5,0.7129774102497403,0.7136454997866384,0.01161244153834362,0.13578403660808078,1.4665193563423537e-16,0.5662490216402138,1.0221169750819772e-80,0.7020330582482948
133.0,0.716754189303051,0.7174222788399491,0.010607284357023739,0.1607593058266157,8.666036061614637e-16,0.5460556886563088,8.628171484631173e-79,0.7068149944829254
133.5,0.7227260717701927,0.7233941613070908,0.008515065604793759,0.1886007438556727,4.825234260206182e-15,0.5262783518466195,6.6705285798353885e-77,0.714879095702297
134.0,0.7316963446146045,0.7323644341515027,0.006134859823009098,0.21929711645452885,2.5345122325289036e-14,0.5069324578739394,4.730610849774622e-75,0.7262295743284936
134.5,0.7432161159646864,0.7438842055015845,0.0030832862857875787,0.25276984494589916,1.257333186199245e-13,0.48803107426977205,3.082248529762707e-73,0.7408009192157969
135.0,0.758706244256725,0.7593743337936231,0.0009214286762661006,0.2888678834425002,5.897631150161765e-13,0.4695850216742671,1.847887908947716e-71,0.758452905117357
135.5,0.7763492058735594,0.7770172954104575,-0.0019505607306102846,0.32736484974984975,2.6185260746906998e-12,0.45160300638859957,1.0209198824915554e-69,0.7789678561410678
136.0,0.798066242666939,0.7987343322038372,-0.003316135067748638,0.3679587149226252,1.1016887627511552e-11,0.4340917523379436,5.20538745909061e-68,0.8020504672715858
136.5,0.822496526206222,0.8231646157431202,-0.0041657582427967466,0.4102742422964209,4.396877696290339e-11,0.41705613164552724,2.452924548057966e-66,0.8273303739859169
137.0,0.8501672942447251,0.8508353837816233,-0.0035321456577112054,0.45386823615688715,1.666342753424742e-10,0.400499293115813,1.0697856982455717e-64,0.8543675294393345
137.5,0.8800861370971365,0.8807542266340346,-0.001906083107812706,0.49823752112437475,6.002889525985045e-10,0.38442278801718366,4.3240455979896494e-63,0.8826603097418473
138.0,0.9109767259814656,0.9116448155183637,-1.131382084185173e-05,0.5428294346401946,2.057618071485293e-09,0.36882669264139284,1.6220042371603743e-61,0.9116561293392056
138.2,0.9229144240397498,0.9235825135766479,0.0002625771763925533,0.5605974076234971,3.322125275421505e-09,0.36272252545463296,6.772750890424121e-61,0.9233199364002553
138.4,0.9353601337327652,0.9360282232696633,0.0010653266245574944,0.5782679973910265,5.322395144967584e-09,0.356694893931684,2.7952308541627084e-60,0.9349628966451058
138.6,0.9473196758422712,0.9479877653791693,0.0014422851208000242,0.5958018433585475,8.461835219430084e-09,0.3507436284379866,1.1403699123920587e-59,0.9465454802583693
138.8,0.9592179203592234,0.9598860098961215,0.0018581429393167426,0.6131593237528036,1.3351024867305195e-08,0.3448685298529764,4.599229141224851e-59,0.9580278669568048
139.0,0.970193316442049,0.9708614059789471,0.0014912950285004278,0.6303007193645949,2.0906593181839884e-08,0.3390693706792586,1.833880468487586e-58,0.9693701109504467
139.2,0.9819328001106957,0.9826008896475938,0.002068581939377423,0.6471863790818495,3.2493490705853985e-08,0.3333458961328762,7.230009242184315e-58,0.9805323077082164
139.4,0.9935022198432198,0.994170309380118,0.0026955478794913335,0.6637768861583128,5.012789943907276e-08,0.3276978252144145,2.8185349028831545e-57,0.9914747615006266
139.6,1.0036074763894287,1.004275565926327,0.0021174132313293015,0.6800332241702494,7.676408297071984e-08,0.3221248517606654,1.086574049940682e-56,1.0021581526949976
139.8,1.0137562602021974,1.0144243497390957,0.0018806459470608328,0.6959169416190757,1.1669633699294251e-07,0.3166266454766221,4.142675546488821e-56,1.0125437037920348
140.0,1.0229553019289974,1.0236233914658956,0.001030048249010429,0.7113903141519698,1.7611727061762012e-07,0.3112028529476447,1.5621482739538856e-55,1.0225933432168852
140.2,1.0323391082231,1.0330071977599982,0.000737331846517586,0.7264165033954855,2.638863901100229e-07,0.305853098631605,5.8266256407727985e-55,1.0322698659134806
140.4,1.0411575904351367,1.041825679972035,0.00028859013432547265,0.7409597114279356,3.925788654165795e-07,0.3005769858309084,2.149804803026956e-54,1.0415370898377094
140.6,1.048180640291145,1.0488487298280433,-0.001511277675291245,0.7549853299550906,5.799039505687098e-07,0.29537409764429345,7.846956548470458e-54,1.0503600075033346
140.8,1.055349120538966,1.0560172100758642,-0.002687721728481751,0.7684600832997238,8.506063042050869e-07,0.29024399789831806,2.8337188812947047e-53,1.058704931804346
141.0,1.062908644634916,1.0635767341718143,-0.002962901246649441,0.781352164368076,1.2389918649285834e-06,0.28518623205852295,1.0125076370424628e-52,1.0665396354184637
141.2,1.0690834494684707,1.069751539005369,-0.004081944183446762,0.7936313628152778,1.792253317656444e-06,0.28020032812022017,3.579796594473796e-52,1.0738334831888157
141.4,1.0747862373361048,1.075454326873003,-0.005103230110468537,0.8052691846958279,2.57480870159623e-06,0.2752857974789421,1.2524751208830529e-51,1.0805575569834716
141.6,1.080809573768704,1.0814776633056022,-0.005207109339584459,0.8162389629543714,3.6739102531948103e-06,0.2704421357805621,4.3367315603958357e-51,1.0866847726451867
141.8,1.086437050591602,1.0871051401285001,-0.005084848636292438,0.8265159581849723,5.206828679613222e-06,0.2656688237511406,1.4861763916366248e-50,1.0921899887647926
142.0,1.0894042073858843,1.0900722969227825,-0.006977810216948432,0.8360774491633802,7.329969777313761e-06,0.2609653280065734,5.041085000101578e-50,1.097050107139731
142.2,1.0954379199344333,1.0961060094713315,-0.005138155440550296,0.8449028127356423,1.0250334113634171e-05,0.25633110184212604,1.6926015716599478e-49,1.1012441649118818
142.4,1.0979442051939927,1.098612294730891,-0.006141123782136715,0.8529735927269184,1.4239784139488244e-05,0.2517655860019697,5.6259191167149246e-49,1.1047534185130277
142.6,1.1020190450227905,1.1026871345596887,-0.004874285118634969,0.8602735576159288,1.9652633552851302e-05,0.24726820942884198,1.851275176942793e-48,1.1075614196783237
142.8,1.104277663941746,1.1049457534786442,-0.004708330434582297,0.8667887468022072,2.694711705064825e-05,0.24283838999396867,6.031394079706332e-48,1.1096540839132265
143.0,1.1062684645752388,1.106936554112137,-0.0040831977997506375,0.8725075053745434,3.671132992411889e-05,0.23847553520742007,1.9456463881009887e-47,1.1110197519118876
143.2,1.108459352172568,1.1091274417094663,-0.00252180280915959,0.8774205073690927,4.969424048138931e-05,0.23417904290905184,6.214978170932546e-47,1.111649244518626
143.4,1.1091263843300982,1.1097944738669965,-0.0017414380243370164,0.8815207675837013,6.68423673914686e-05,0.22994830194024066,1.965959499556908e-46,1.1115359118913335
143.6,1.107417973756026,1.1080860632929241,-0.002589614265793072,0.8848036420906891,8.934267143357446e-05,0.22578269279659455,6.158831645571831e-46,1.1106756775587172
143.8,1.1073596806191923,1.1080277701560906,-0.0010393078976844716,0.887266817662834,0.00011867212909459743,0.22168158826184656,1.9109099339339367e-45,1.109067078053775
144.0,1.1050985601321708,1.105766649669069,-0.000944649076534354,0.8889102903961855,0.0001566543262451358,0.21764435402317264,5.872584955923643e-45,1.1067112987456034
144.2,1.1022650318348388,1.102933121371737,-0.0006790850010205407,0.8897363338781625,0.00020552322645945545,0.2136703492681355,1.7876992662945886e-44,1.1036122063727576
144.4,1.0978009843793344,1.0984690739162326,-0.0013073046810809785,0.8897494573095961,0.00026799402419902665,0.20975892726351833,5.390937715149983e-44,1.0997763785973136
144.6,1.0937388757937767,1.094406965330675,-0.0008061653139348479,0.8889563540447575,0.00034734068357144643,0.2059094359162808,1.6105242859220417e-43,1.0952131306446098
144.8,1.0892012681152172,1.0898693576521155,-6.518111504139057e-05,0.8873658410635388,0.0004474793867226129,0.2021212183168954,4.7668506678863746e-43,1.0899345387671568
145.0,1.0833173713796835,1.0839854609165818,3.000104315686869e-05,0.8849887899346667,0.0005730566734188392,0.1983936132653393,1.397928939149237e-42,1.083955459873425
145.2,1.0768446637894546,1.0775127533263529,0.0002192071281084118,0.881838049867889,0.0007295405503687478,0.19472595577998675,4.062147443301796e-42,1.0772935461982445
145.4,1.0710720499955413,1.0717401395324395,0.0017708861609553317,0.8779283634864116,0.0009233122953745402,0.19111757758969805,1.1696902069066932e-41,1.0699692533714842
145.6,1.0637151000383032,1.0643831895752014,0.0023773498946673133,0.8732762759783732,0.0011617560927837994,0.18756780760937702,3.337781789066866e-41,1.062005839680534
145.8,1.0553947134274393,1.0560628029643375,0.0026334492234747486,0.8679000383078335,0.0014533430337569033,0.18407597239927237,9.439392955812132e-41,1.0534293537408628
146.0,1.0469181268420056,1.0475862163789038,0.0033176091649533834,0.861819505181705,0.0018077054239188472,0.1806413966083266,2.6457947017772236e-40,1.0442686072139504
146.2,1.037725947826764,1.0383940373636622,0.003838908688964082,0.8550560284793042,0.00223569679354144,0.17726340340185245,7.350567622545791e-40,1.0345551286746981
146.4,1.0278607259509567,1.028528815487855,0.004205721220704062,0.8476323468559326,0.0027494325373912183,0.17394131487382708,2.0242529097792878e-39,1.0243230942671508
146.6,1.0162682528026832,1.0169363423395814,0.0033271119022528772,0.8395724722313762,0.0033623057618309307,0.17067445244412136,5.52604129459931e-39,1.0136092304373285
146.8,1.0049603863710457,1.005628475907944,0.003175792072350525,0.8309015738684148,0.004088972726249978,0.16746213724092854,1.4955296781468787e-38,1.0024526838355934
147.0,0.9940617909644807,0.9947298805013788,0.0038350270222027305,0.82164586073607,0.004945302274377062,0.16430369046872892,4.012669580869988e-38,0.990894853479176
147.2,0.981067729558855,0.9817358190957531,0.002756638601035255,0.811832462837128,0.0059482838955320135,0.16119843376205792,1.067468129266398e-37,0.9789791804947179
147.4,0.9687570242333428,0.9694251137702409,0.002674222516785396,0.8014893121603377,0.00711588956771562,0.15814568952540217,2.815691650298736e-37,0.9667508912534555
147.6,0.9551121382280003,0.9557802277648985,0.0015235372742739006,0.7906450238945054,0.00846688533660359,0.1551447812595156,7.3646012242967156e-37,0.9542566904906246
147.8,0.9410443516974452,0.9417124412343433,0.00016803915596874663,0.7793287785150701,0.010020589688855679,0.15219503387444877,1.9101719470789146e-36,0.9415444020783745
148.0,0.9282102391386736,0.9288783286755717,0.00021577217885471178,0.7675702053240968,0.011796577183009463,0.14929577398961083,4.9133725982140776e-36,0.928662556496717
148.2,0.9143964782752816,0.9150645678121797,-0.0005953578904677181,0.7553992679919977,0.013814327489507885,0.14644633022114178,1.2534172937778327e-35,0.9156599257026474
148.4,0.9018395161395873,0.9025076056764855,-7.740232413600001e-05,0.7428461526146085,0.016092821929101234,0.1436460334569118,3.1713557381833356e-35,0.9025850080006215
148.6,0.8892394452262464,0.8899075347631445,0.00042206714657699873,0.7299411587623321,0.018650091734798896,0.14089421711943653,7.958878893205145e-35,0.8894854676165675
148.8,0.8775712942916154,0.8782393838285135,0.0018318479231941298,0.716714593959696,0.021502724528627323,0.13819021741699605,1.981256333369193e-34,0.8764075359053194
149.0,0.8653277338371513,0.8659958233740495,0.0026004399792521893,0.7031966719941949,0.024665337817332694,0.1355333735832697,4.892549976249538e-34,0.8633953833947973
149.2,0.8536833141432314,0.8543514036801295,0.003860929586714801,0.689417415412701,0.028150030574957095,0.13292302810575665,1.19855927897635e-33,0.8504904740934147
149.4,0.8421273070123358,0.842795396549234,0.005064480993121179,0.6754065625229929,0.03196582608983311,0.1303585269432868,2.9129769346598857e-33,0.8377309155561128
149.6,0.8301840009865331,0.8308520905234312,0.005701270513928658,0.6611934791768311,0.03611812109977057,0.12783921973290088,7.024110075385021e-33,0.8251508200095026
149.8,0.8186830686384969,0.8193511581753951,0.006571464905273272,0.6468070755701425,0.04060815771359904,0.12536445998638027,1.6805273578263082e-32,0.8127796932701218
150.0,0.8062259411538046,0.8068940306907028,0.0062521615402889585,0.632275728255579,0.04543253561812198,0.12293360527671288,3.9895414756234936e-32,0.8006418691504138
150.5,0.7768532398600971,0.7775213293969953,0.0060959466359507,0.5954938013190225,0.05888720563984467,0.11704437580217737,3.349597977461249e-31,0.7714253827610446
151.0,0.746822789205857,0.7474908787427551,0.0036047652879058756,0.5583919736053895,0.0740784117579711,0.11141572809148861,2.6819664866554976e-30,0.7438861134548492
151.5,0.7174899987871117,0.7181580883240098,0.00027148251319031313,0.5213528034930647,0.09049580170594775,0.10603800061180714,2.0495192562968825e-29,0.7178866058108195
152.0,0.6891698626924702,0.6898379522293683,-0.0032043353969255506,0.48472289398099067,0.10741766257930355,0.10090173106599959,1.4959919238661065e-28,0.6930422876262938
152.5,0.6628539239893554,0.6635220135262535,-0.005243226449179628,0.4488099766762789,0.12395759615864789,0.09599766714050634,1.0438050009860135e-27,0.6687652399754331
153.0,0.637725235288783,0.6383933248256811,-0.005945914997831925,0.41388124507328133,0.13914121929156992,0.09131677545866182,6.96707511069679e-27,0.644339239823513
153.5,0.6122241576541972,0.6128922471910954,-0.006124528620639835,0.38016283025079184,0.15200369667934174,0.08685024888160169,4.451892625946143e-26,0.6190167758117352
154.0,0.5853711580242985,0.5860392475611966,-0.006084663239545041,0.34784028889922314,0.16169410960924896,0.08258951229226946,2.7253237274080946e-25,0.5921239108007417
154.5,0.5570045498314754,0.5576726393683735,-0.005484063040804177,0.317059958554598,0.16757051686325725,0.0785262269913224,1.599488446467581e-24,0.5631567024091777
155.0,0.5273905514788111,0.5280586410157092,-0.003795372088209792,0.2879310274361188,0.169270691840783,0.07465229382701723,9.00613403976604e-24,0.531854013103919
155.5,0.4956873989757109,0.496355488512609,-0.0018802473744167214,0.26052816548671165,0.16674771522586376,0.07095985517445037,4.8684323055711645e-23,0.49823573588702574
156.0,0.462234411976683,0.46290250151358114,0.00030074654348849483,0.23489456806909625,0.16026589102809718,0.06744129587289922,2.5282906484661306e-22,0.46260175497009265
156.5,0.42752224148744095,0.42819033102433907,0.002696434997726538,0.2110452731604452,0.15035937964267415,0.06408924322349317,1.2622354452767788e-21,0.42549389602661253
157.0,0.3927129505899352,0.39338104012683334,0.005751870563493577,0.1889706256921738,0.13776197772809481,0.06089656614307116,6.061950927804973e-21,0.38762916956333976
157.5,0.3583120605994039,0.358980150136302,0.009163574793168539,0.16863977781890693,0.12332042396034992,0.05785637356387665,2.802342315221919e-20,0.3498165753431335
