wavelength,absorbance,absorbance_bk,residual_3gauss
117.0,1.1780336804021088,1.178701769939007,0.0026028251929641755
117.5,1.1742218528456765,1.1748899423825747,0.008025835039949358
118.0,1.1469284215768698,1.147596511113768,-0.008570833382246512
118.5,1.139039865151707,1.1397079546886053,-0.00438246485114524
119.0,1.1312776459810931,1.1319457355179914,0.0012278307139679256
119.5,1.1141974790659055,1.1148655686028037,-0.0012711675090846253
120.0,1.0972320754291744,1.0979001649660727,-0.002535712411751545
120.5,1.0847965483964817,1.0854646379333799,0.001758518010741117
121.0,1.068390378993604,1.0690584685305022,0.003018425710605843
121.5,1.0497424688085328,1.050410558345431,0.002878397249659992
122.0,1.0284083777570752,1.0290764672939734,0.0007971800756105818
122.5,1.0075844485092311,1.0082525380461294,-0.00012858922186920196
123.0,0.9843873056641651,0.9850553952010632,-0.0028857305167715452
123.5,0.9654316338405167,0.9660997233774148,-0.0009678378489359485
124.0,0.9393732891340297,0.9400413786709279,-0.0058335011658223745
124.5,0.9176593839157242,0.9183274734526223,-0.0061577579956384465
125.0,0.8940588048487143,0.8947268943856124,-0.008303256436288597
125.5,0.8739900206370814,0.8746581101739795,-0.006994186578682227
126.0,0.8528173188500243,0.8534854083869224,-0.007021725682380242
126.5,0.8319724601156246,0.8326405496525228,-0.007123865470044288
127.0,0.8125653260288599,0.813233415565758,-0.006375877656525475
127.5,0.7963293187433204,0.7969974082802185,-0.0032454749597049526
128.0,0.7803833425741118,0.7810514321110099,-0.0008306454022971588
128.5,0.7642397652864814,0.7649078548233795,0.00014942362741265924
129.0,0.7521634378580707,0.7528315273949688,0.0037155748446330294
129.5,0.7409583776836963,0.7416264672205944,0.006418795579173797
130.0,0.7314267153781692,0.7320948049150673,0.008803889540283993
130.5,0.7231188040843615,0.7237868936212596,0.010165607376816932
131.0,0.7176347770305603,0.7183028665674585,0.011857443240146925
131.5,0.7130297672223592,0.7136978567592573,0.011705144456578997
132.0,0.7116545042660257,0.7123225938029238,0.011856393119179631
132.5,0.7129774102497403,0.7136454997866384,0.011612441471308466
133.0,0.716754189303051,0.7174222788399491,0.010607284288488561
133.5,0.7227260717701927,0.7233941613070908,0.008515065536188415
134.0,0.7316963446146045,0.7323644341515027,0.006134859755902444
134.5,0.7432161159646864,0.7438842055015845,0.003083286221835957
135.0,0.758706244256725,0.7593743337936231,0.0009214286171509434
135.5,0.7763492058735594,0.7770172954104575,-0.0019505607832528415
136.0,0.798066242666939,0.7987343322038372,-0.0033161351124038063
136.5,0.822496526206222,0.8231646157431202,-0.004165758278149023
137.0,0.8501672942447251,0.8508353837816233,-0.0035321456827206443
137.5,0.8800861370971365,0.8807542266340346,-0.0019060831217829755
138.0,0.9109767259814656,0.9116448155183637,-1.1313823477965279e-05
138.2,0.9229144240397498,0.9235825135766479,0.00026257717827393723
138.4,0.9353601337327652,0.9360282232696633,0.001065326630902641
138.6,0.9473196758422712,0.9479877653791693,0.0014422851315245566
138.8,0.9592179203592234,0.9598860098961215,0.0018581429543058636
139.0,0.970193316442049,0.9708614059789471,0.0014912950476090314
139.2,0.9819328001106957,0.9826008896475938,0.0020685819624285395
139.4,0.9935022198432198,0.994170309380118,0.0026955479062789056
139.6,1.0036074763894287,1.004275565926327,0.0021174132616170738
139.8,1.0137562602021974,1.0144243497390957,0.001880645980583795
140.0,1.0229553019289974,1.0236233914658956,0.0010300482854757043
140.2,1.0323391082231,1.0330071977599982,0.0007373318856058741
140.4,1.0411575904351367,1.041825679972035,0.0002885901756921605
140.6,1.048180640291145,1.0488487298280433,-0.0015112776320140853
140.8,1.055349120538966,1.0560172100758642,-0.002687721683683586
141.0,1.062908644634916,1.0635767341718143,-0.0029629012007394984
141.2,1.0690834494684707,1.069751539005369,-0.004081944136850035
141.4,1.0747862373361048,1.075454326873003,-0.0051032300636260075
141.6,1.080809573768704,1.0814776633056022,-0.005207109292947765
141.8,1.086437050591602,1.0871051401285001,-0.0050848485903221
142.0,1.0894042073858843,1.0900722969227825,-0.006977810172110743
142.2,1.0954379199344333,1.0961060094713315,-0.005138155397312882
142.4,1.0979442051939927,1.098612294730891,-0.006141123740964538
142.6,1.1020190450227905,1.1026871345596887,-0.0048742850799883275
142.8,1.104277663941746,1.1049457534786442,-0.004708330398909721
143.0,1.1062684645752388,1.106936554112137,-0.004083197767486224
143.2,1.108459352172568,1.1091274417094663,-0.0025218027807170085
143.4,1.1091263843300982,1.1097944738669965,-0.0017414380001044005
143.6,1.107417973756026,1.1080860632929241,-0.0025896142461279137
143.8,1.1073596806191923,1.1080277701560906,-0.0010393078829071811
144.0,1.1050985601321708,1.105766649669069,-0.0009446490669224872
144.2,1.1022650318348388,1.102933121371737,-0.0006790849968025814
144.4,1.0978009843793344,1.0984690739162326,-0.0013073046824303436
144.6,1.0937388757937767,1.094406965330675,-0.0008061653209627817
144.8,1.0892012681152172,1.0898693576521155,-6.518112779207996e-05
145.0,1.0833173713796835,1.0839854609165818,3.000102471362176e-05
145.2,1.0768446637894546,1.0775127533263529,0.0002192071040818533
145.4,1.0710720499955413,1.0717401395324395,0.0017708861315379743
145.6,1.0637151000383032,1.0643831895752014,0.002377349860139377
145.8,1.0553947134274393,1.0560628029643375,0.002633449184205938
146.0,1.0469181268420056,1.0475862163789038,0.0033176091214046632
146.2,1.037725947826764,1.0383940373636622,0.003838908641686567
146.4,1.0278607259509567,1.028528815487855,0.004205721170336574
146.6,1.0162682528026832,1.0169363423395814,0.0033271118495177276
146.8,1.0049603863710457,1.005628475907944,0.003175792018045298
147.0,0.9940617909644807,0.9947298805013788,0.0038350269671911796
147.2,0.981067729558855,0.9817358190957531,0.0027566385462355347
147.4,0.9687570242333428,0.9694251137702409,0.0026742224631550737
147.6,0.9551121382280003,0.9557802277648985,0.001523537222793192
147.8,0.9410443516974452,0.9417124412343433,0.00016803910762075436
148.0,0.9282102391386736,0.9288783286755717,0.0002157721346051078
148.2,0.9143964782752816,0.9150645678121797,-0.000595357929693674
148.4,0.9018395161395873,0.9025076056764855,-7.740235747633051e-05
148.6,0.8892394452262464,0.8899075347631445,0.00042206711989745127
148.8,0.8775712942916154,0.8782393838285135,0.0018318479038412772
149.0,0.8653277338371513,0.8659958233740495,0.0026004399677601597
149.2,0.8536833141432314,0.8543514036801295,0.0038609295834679536
149.4,0.8421273070123358,0.842795396549234,0.0050644809983372285
149.6,0.8301840009865331,0.8308520905234312,0.005701270527645019
149.8,0.8186830686384969,0.8193511581753951,0.006571464927340398
150.0,0.8062259411538046,0.8068940306907028,0.0062521615703660105
150.5,0.7768532398600971,0.7775213293969953,0.0060959466833402365
151.0,0.746822789205857,0.7474908787427551,0.003604765346693406
151.5,0.7174899987871117,0.7181580883240098,0.00027148257567066736
152.0,0.6891698626924702,0.6898379522293683,-0.003204335338998665
152.5,0.6628539239893554,0.6635220135262535,-0.0052432264031566644
153.0,0.637725235288783,0.6383933248256811,-0.0059459149688319
153.5,0.6122241576541972,0.6128922471910954,-0.006124528610601865
154.0,0.5853711580242985,0.5860392475611966,-0.0060846632468767314
154.5,0.5570045498314754,0.5576726393683735,-0.005484063060705258
155.0,0.5273905514788111,0.5280586410157092,-0.003795372113594264
155.5,0.4956873989757109,0.496355488512609,-0.0018802473972332479
156.0,0.462234411976683,0.46290250151358114,0.00030074653082046154
156.5,0.42752224148744095,0.42819033102433907,0.0026964350010529325
157.0,0.3927129505899352,0.39338104012683334,0.005751870586060859
157.5,0.3583120605994039,0.358980150136302,0.009163574835282406
158.0,0.32314839493731123,0.32381648447420935,0.010945466248733493
158.5,0.28694810743163024,0.28761619696852836,0.010079630425494368
159.0,0.25209516852954095,0.25276325806643907,0.008335254678010884
159.5,0.21882366249918753,0.21949175203608567,0.005496407166204004
160.0,0.18656585090661687,0.18723394044351502,0.000722221045499849
160.5,0.15753259966528435,0.1582006892021825,-0.0038808350292603433
161.0,0.13166692472747749,0.13233501426437563,-0.008328544811096933
161.5,0.10883708762903836,0.1095051771659365,-0.012597808723252626
162.0,0.0894167647535527,0.09008485429045084,-0.01608143358376171
162.5,0.0730456206391412,0.07371371017603934,-0.01886082187744481
163.0,0.05937208016353736,0.06004016970043549,-0.020991591735695148
163.5,0.04851992421483749,0.04918801375173562,-0.022058872974161314
164.0,0.03909183875639762,0.039759928293295756,-0.023188826295330027
164.5,0.03246395033222956,0.033132039869127695,-0.022762965675753512
165.0,0.026672662335799912,0.02734075187269805,-0.022535123365404967
165.5,0.022355097716898312,0.02302318725379645,-0.0216911032309862
166.0,0.018421367229774145,0.019089456766672282,-0.02117410134621783
166.5,0.016000407213564997,0.016668496750463134,-0.019735243508861973
167.0,0.013702480518511272,0.014370570055409409,-0.01866697151846367
167.5,0.011304127808954102,0.01197221734585224,-0.018114047855585548
168.0,0.009368098829993983,0.01003618836689212,-0.0174499753745471
168.5,0.008250218498410334,0.008918308035308471,-0.01626702728073941
169.0,0.007759186545797578,0.008427276082695714,-0.01471391866158832
169.5,0.007685403580056224,0.008353493116954361,-0.012964984802487702
170.0,0.006936001528965305,0.007604091065863443,-0.012083611243006064
170.5,0.006523027913446477,0.007191117450344614,-0.011032878826031543
171.0,0.005619167175154875,0.006287256712053013,-0.010618957942234563
171.5,0.004696684056200571,0.005364773593098708,-0.010351496577340816
172.0,0.004220070351252034,0.004888159888150171,-0.009750465083200703
172.5,0.004095878075812581,0.004763967612710718,-0.008895933036113584
173.0,0.003923035651946659,0.004591125188844796,-0.008177452250135109
173.5,0.003632093777836045,0.004300183314734182,-0.007654579818504925
174.0,0.003092877003112308,0.0037609665400104453,-0.007449053200597579
174.5,0.002739952305236357,0.003408041842134494,-0.007119199444066696
175.0,0.003271684156471583,0.00393977369336972,-0.005960805849187924
175.5,0.0027786011933472582,0.0034466907302453955,-0.005878725369204755
176.0,0.003243619239767948,0.003911708776666085,-0.004886670236696477
176.5,0.0033720725985363995,0.004040162135434537,-0.004277238176355598
177.0,0.0033498034034843928,0.00401789294038253,-0.003863913924415897
177.5,0.0033355871073080063,0.004003676644206144,-0.0034887550837245825
178.0,0.0037340078613426727,0.00440209739824081,-0.0027496290204367764
178.5,0.004002218785475145,0.004670308322373282,-0.0021935391511422077
179.0,0.004145503978071583,0.00481359351496972,-0.0018210906652070986
179.5,0.005078761282532372,0.005746850819430509,-0.0007249392234223171
180.0,0.00498516686347689,0.005653256400375027,-0.0007309235211306244
180.5,0.005486206159607734,0.006154295696505871,-0.00022766368735545241
181.0,0.0061812757533323565,0.006849365290230494,0.000373601622245541
181.5,0.006826813562349367,0.007494903099247504,0.0008189020685965389
182.0,0.006986496580413557,0.007654586117311694,0.0006626677830833599
182.5,0.007317355238548384,0.00798544477544652,0.0005549112997751534
183.0,0.00834020921970912,0.009008298756607257,0.0010127922282556073
183.5,0.00904243762856884,0.009710527165466977,0.0010244818772288042
184.0,0.009571040384767745,0.010239129921665882,0.0007431728476399377
184.5,0.010891942008656732,0.011560031545554869,0.0011470681845449516
185.0,0.01221796679331906,0.012886056330217197,0.0014676717772396809
185.5,0.012975287166923097,0.013643376703821234,0.0011560985576939773
186.0,0.013405644295277028,0.014073733832175165,0.00048465771230994485
186.5,0.013801712926130113,0.01446980246302825,-0.00021891772828199797
187.0,0.014114193463516304,0.014782283000414441,-0.0009659589839873927
187.5,0.014795319733748431,0.015463409270646569,-0.001265276379402585
188.0,0.01632274647644136,0.0169908360133395,-0.0006013935808511263
188.5,0.016998745464683173,0.01766683500158131,-0.0006375023649438545
189.0,0.017880352538451796,0.018548442075349933,-0.0002873171743444994
189.5,0.017421557132342162,0.0180896466692403,-0.0010745703762060355
190.0,0.017883497053644132,0.01855158659054227,-0.0007240471195665531
190.5,0.01760574684927302,0.018273836386171156,-0.0008909767598370665
191.0,0.016582981715971792,0.01725107125286993,-0.0015844568268315352
191.5,0.01691163943142929,0.017579728968327428,-0.000720300092934608
192.0,0.01745808293665666,0.0181261724735548,0.0005481337551549136
192.5,0.017071315892370376,0.017739405429268513,0.0010440685032647931
193.0,0.016444108709236342,0.01711219824613448,0.0014301276963271728
193.5,0.015800244078596173,0.01646833361549431,0.001897399669111878
194.0,0.014542143741611635,0.015210233278509773,0.0018148697013161737
194.5,0.013544912414955992,0.01421300195185413,0.002025128075126878
195.0,0.011398561416803628,0.012066650953701765,0.001088015742955294
195.5,0.009437813464660176,0.010105903001558314,0.0003115405751306574
196.0,0.007935087010951953,0.00860317654785009,-5.437176691205914e-05
196.5,0.0064287924961933165,0.007096882033091454,-0.000489162010427785
197.0,0.005374742018301053,0.00604283155519919,-0.0005501296710500618
197.5,0.00387503011217756,0.004543119649075697,-0.0011437300320492763
198.0,0.003231354054353589,0.0038994435912517262,-0.0009726483407852971
198.5,0.0021897132815722484,0.0028578028184703856,-0.0012916471463029497
199.0,0.0012655723064754364,0.0019336618433735734,-0.0015830389138644916
199.5,0.0007830056137690876,0.0014510951506672247,-0.001518208084342706
200.0,0.0011133830953228287,0.0017814726322209658,-0.000719576277581041
200.5,2.4801365328912767e-05,0.00069289090222705,-0.0014117689902591575
201.0,0.000511959450970316,0.0011800489878684532,-0.0005922607896213104
201.5,-0.0002085107288766828,0.0004595788080214543,-0.001036475112474369
202.0,-0.000453337107950234,0.00021475242894790315,-0.0010534126533706916
202.5,-0.0006680895368981371,0.0,-0.0010813778473584713
203.0,-0.0006640250508511217,4.064486047015482e-06,-0.0009249860266436731
203.5,-0.00025695309592108166,0.0004111364409770555,-0.00039411995086536226
204.0,-0.0005271627214252521,0.00014092681547288506,-0.0005638911422762492
204.5,-0.00037038923532138905,0.0002977003015767481,-0.0003255970228239844
205.0,-9.186408063968493e-05,0.0005762254562584522,1.926983040478154e-05
205.5,-0.0003664008520338243,0.0003016886848643128,-0.00020100357940717762
206.0,-8.7394288115224e-05,0.0005806952487829131,0.00012272216449442136
206.5,0.0001656585589945443,0.0008337480958926814,0.000412993554674856
207.0,0.00014808381710357268,0.0008161733540017098,0.00042676430738443073
207.5,-0.000101954828686558,0.0005661347082115792,0.00020347969652804548
208.0,0.00011086339418924224,0.0007789529310873794,0.00043945920485067457
208.5,0.0003888754781257869,0.001056965015023924,0.0007378108902171609
209.0,0.0002540188690681304,0.0009221084059662676,0.0006210627187346556
209.5,7.060097783712196e-05,0.0007386905147352592,0.00045397134869902024
210.0,0.000519820530034572,0.0011879100669327093,0.0009180755828367801
210.5,0.00045240824557683264,0.0011204977824749698,0.0008643628236592876
211.0,0.0007452878783634407,0.0014133774152615777,0.0011699504743234248
211.5,0.0001520609803954802,0.0008201505172936173,0.000588586547127348
212.0,0.0010276743190361288,0.001695763855934266,0.0014753292401464997
212.5,0.00010590882660553228,0.0007739983635036694,0.0005640450984725462
213.0,0.0003486648583029479,0.001016754395201085,0.000816701167267797
213.5,2.224687154736118e-05,0.0006903364084454983,0.0004996547749869999
214.0,-4.603450236863604e-05,0.000622055034529501,0.000440259344295137
214.5,0.00014134844214537404,0.0008094379790435112,0.000636078006416356
215.0,-3.597084143746286e-05,0.0006321186954606743,0.000466774228082009
215.5,0.00020378847330075343,0.0008718780101988905,0.0007141548325435181
216.0,0.00029997973469874246,0.0009680692715968795,0.0008175961405438873
216.5,0.00048739777033933674,0.001155487307237474,0.001011913629945881
217.0,0.00119028138578632,0.0018583709226844573,0.001721364931035058
217.5,0.0006971710361899081,0.0013652605730880452,0.0012345078498669213
218.0,0.0011684960524340887,0.0018365855893322258,0.0017117878450141895
218.5,0.0010600285581087083,0.0017281180950068455,0.001608992124979507
219.0,0.0009879833515788125,0.0016560728884769498,0.0015423496622943111
219.5,0.0011961408244327188,0.001864230361330856,0.001755654210704407
220.0,0.0008893281016396233,0.0015574176385377604,0.0014537455211896518
