wavelength,absorbance,absorbance_bk,residual_3gauss,Gauss_1,Gauss_2,Gauss_3,Gauss_4,Gauss_fit
117.0,0.4996073425648462,0.5075804521514174,-0.0032958781406294824,6.238969327217007e-07,2.3083434237627005e-57,0.5108757063951143,1.9838914649196228e-146,0.5108763302920469
117.5,0.49505545688979846,0.5030285664763697,-0.004007362708842388,1.132065746495537e-06,1.8832973930929007e-55,0.5070347971194656,2.677791343756995e-143,0.5070359291852121
118.0,0.49221341167439125,0.5001865212609625,-0.002369299900252031,2.0165517791405206e-06,1.3717445975007814e-53,0.5025538046094354,3.1437047953577702e-140,0.5025558211612146
118.5,0.4859543562316141,0.49392746581818536,-0.003543427176849301,3.527776236031896e-06,8.941365395080072e-52,0.49746736521879864,3.21891411904104e-137,0.49747089299503466
119.0,0.4824653682834815,0.4904384778700528,-0.001378794222888502,6.063416940044874e-06,5.227891441093305e-50,0.49181120867600125,2.8823634639364e-134,0.4918172720929413
119.5,0.4799585836039971,0.4879316931905684,0.0022995729851569835,1.0242957071633518e-05,2.74810619059403e-48,0.4856218772483398,2.263092790516935e-131,0.4856321202054114
120.0,0.47337823310923066,0.48135134269580193,0.0023978709564042022,1.701326274874508e-05,1.3016482079973264e-46,0.478936458476649,1.5620211385431836e-128,0.47895347173939773
120.5,0.4663659444729915,0.4743390540595628,0.0025189264010164747,2.779477607815718e-05,5.56741106226015e-45,0.47179233288246814,9.501536715877636e-126,0.4718201276585463
121.0,0.45974529157239,0.4677184011589613,0.0034467840114327797,4.467939681685533e-05,2.154948694381328e-43,0.46422693775071167,5.106109502732429e-123,0.4642716171475285
121.5,0.4510485590451612,0.4590216686317325,0.002673428610487305,7.0692212209678e-05,7.563932266618393e-42,0.4562775478090355,2.4300698481912617e-120,0.4563482400212452
122.0,0.4432646631910408,0.45123777277761207,0.0031465698186643465,0.00011012959643577581,2.412501754813959e-40,0.447981073362512,1.0265958333433873e-117,0.4480912029589477
122.5,0.4330640583739074,0.44103716796047865,0.0014943063019571268,0.00016898545795140536,7.005819714837004e-39,0.4393738762005701,3.8585969184477228e-115,0.4395428616585215
123.0,0.4240292880502424,0.4320023976368137,0.0012553191058859992,0.0002554751575713434,1.8559397036378845e-37,0.43049160337335635,1.2932529400273866e-112,0.4307470785309277
123.5,0.41397128565238234,0.4219443952389536,0.00019469403840377542,0.0003806624631645067,4.4937138512014526e-36,0.42136903873738535,3.8736030959302235e-110,0.42174970120054983
124.0,0.40346011865290793,0.4114332282394792,-0.0011659322927491944,0.0005591885365749712,9.962950142955722e-35,0.4120399719956534,1.0390987046100853e-107,0.4125991605322284
124.5,0.3941187790045621,0.4020918885911334,-0.0012552894139288284,0.0008100932000946869,2.0262713621498536e-33,0.4025370848049675,2.50161535489445e-105,0.4033471780050622
125.0,0.38366458051706015,0.3916376901036314,-0.0024118709473787137,0.0011577076583228797,3.7870646413468766e-32,0.39289185339268723,5.416246067661595e-103,0.39404956105101013
125.5,0.373941091599885,0.38191420118645625,-0.0028528506250784513,0.0016325847961759985,6.515598949501998e-31,0.3831344670153587,1.0567275004386189e-100,0.3847670518115347
126.0,0.3644956829259496,0.37246879251252085,-0.003097387795188533,0.0022724188057678127,1.0336813451472565e-29,0.37329376150194155,1.8615217345213738e-98,0.3755661803077094
126.5,0.35550791353259537,0.36348102311916664,-0.0030390351644895564,0.003122891230440739,1.5146681162807897e-28,0.36339716705321545,2.966531297966126e-96,0.3665200582836562
127.0,0.34662153550283076,0.354594645089402,-0.0031143912151596065,0.004238366889401484,2.0532815822618776e-27,0.35347066941516014,4.284722686345776e-94,0.35770903630456163
127.5,0.33877740398897066,0.34675051357554193,-0.0024706220727950257,0.005682352142061575,2.579086504831372e-26,0.34353878350627537,5.6193896452552895e-92,0.34922113564833696
128.0,0.3315767506560355,0.33954986024260675,-0.0016022995825382136,0.007527621269745863,3.0063574152484315e-25,0.3336245385553991,6.7039502013566674e-90,0.34115215982514496
128.5,0.32479369009653986,0.3327667996831111,-0.0008385901652717687,0.009855916052149352,3.2570822414778494e-24,0.32374947379623353,7.288085849923512e-88,0.3336053898483829
129.0,0.31923546963621524,0.3272085792227865,0.0005178051405512196,0.012757130316353504,3.284519922057034e-23,0.3139336437658818,7.232473020488452e-86,0.3266907740822353
129.5,0.3137936442973664,0.32176675388393766,0.0012432153029388604,0.01632790631503479,3.0874340825083836e-22,0.304195632265964,6.562729340398286e-84,0.3205235385809988
130.0,0.3093425498020371,0.3173156593886084,0.0020934917272073528,0.020669593596601702,2.709068071931132e-21,0.29455257406479934,5.45411988188838e-82,0.31522216766140104
130.5,0.30621749951490423,0.3141906091014755,0.003284872516226167,0.025885553138793316,2.2219740456694947e-20,0.285020183446456,4.158248538232557e-80,0.31090573658524934
131.0,0.3038620010764127,0.31183511066298397,0.004144493264381044,0.03207782865265246,1.7058554410603313e-19,0.27561278874595047,2.912930296255949e-78,0.30769061739860293
131.5,0.30246563209887894,0.3104387416854502,0.004752118632189051,0.03934325100497095,1.2274512121048423e-18,0.26634337204829023,1.8778354524932787e-76,0.30568662305326116
132.0,0.3021463037958754,0.3101194133824467,0.005126712321187277,0.04776908778982766,8.288714491069456e-18,0.25722361327143173,1.1157133337403189e-74,0.3049927010612594
132.5,0.30205529819860233,0.3100284077851736,0.004336075097447489,0.05742839478925278,5.259459019799746e-17,0.24826393789847326,6.118732967712333e-73,0.3056923326877261
133.0,0.30404629210087214,0.3120194016874434,0.00417056830859891,0.06837526570711303,3.139815415781927e-16,0.23947356767173114,3.1018223272393925e-71,0.3078488333788445
133.5,0.3070841159443227,0.315057225530894,0.00355644442516595,0.08064020749581197,1.7656432283879545e-15,0.23086057360991433,1.4555883162130474e-69,0.31150078110572804
134.0,0.31161898129784427,0.31959209088441554,0.0029342725493853306,0.09422588757630772,9.363818010666798e-15,0.22243193075871312,6.331889940204684e-68,0.3166578183350302
134.5,0.31694610010617613,0.3249192096927474,0.0016221317968526106,0.10910350376167084,4.688765791569389e-14,0.21419357413417708,2.556794242829641e-66,0.3232970778958948
135.0,0.3238853426621852,0.3318584522487565,0.0004979806565122424,0.1252100162253423,2.219286339546993e-13,0.20615045536668,9.596395511515736e-65,0.33136047159224424
135.5,0.3318542720996325,0.33982738168620374,-0.0009256710178014993,0.14244645310231577,9.9403243363485e-13,0.1983065996006954,3.3522845144106987e-63,0.34075305270400524
136.0,0.3414782671155704,0.34945137670214166,-0.0018912438110813556,0.16067745825744548,4.21786966482223e-12,0.19066516225155966,1.0913217593247882e-61,0.351342620513223
136.5,0.3529534094722251,0.36092651905879636,-0.0020341598572036768,0.1797321936343848,1.6972825146152965e-11,0.1832284852646424,3.315060682940323e-60,0.36296067891600003
137.0,0.36559295693994226,0.37356606652651353,-0.00183872884588282,0.19940664274294384,6.483906696145458e-11,0.17599815256461346,9.407913727573846e-59,0.37540479537239635
137.5,0.37915427373593974,0.387127383322511,-0.0013149517572633163,0.21946729042180854,2.3538824140156384e-10,0.16897504442257752,2.4973763243953722e-57,0.3884423350797743
138.0,0.3937898842675847,0.401762993854156,-5.247916361655891e-05,0.23965608169823682,8.128915847907309e-10,0.16215939050664416,6.208383905457592e-56,0.40181547301777254
138.2,0.39995330942241863,0.4079264190089899,0.0007292620528939753,0.24770600328297418,1.316289214841834e-09,0.15949115235683253,2.2045040452037846e-55,0.40719715695609593
138.4,0.40567238000933303,0.4136454895959043,0.0010754810311641716,0.255714001423345,2.1149153308223698e-09,0.1568560050264798,7.748124488655966e-55,0.41257000856474013
138.6,0.41152832948898765,0.4195014390755589,0.0015860063983100248,0.26366154324657487,3.3719740005058043e-09,0.15425388605870005,2.695673129039333e-54,0.4179154326772489
138.8,0.41715216164282326,0.42512527122939453,0.0019105917695718122,0.27152995419342346,5.3352085286313495e-09,0.15168471993119073,9.28440681281053e-54,0.4232146794598227
139.0,0.4218550269726084,0.4298281365591797,0.001379211500213362,0.2793004981427881,8.377620609938478e-09,0.1491484185385576,3.1658364698942317e-53,0.4284489250589663
139.2,0.4269134988495992,0.4348866084361705,0.001287255161854295,0.2869544585514293,1.3056237146678876e-08,0.14664488166664977,1.0688112621210858e-52,0.4335993532743162
139.4,0.43172623913324026,0.43969934871981153,0.0010521109880395896,0.2944732200768133,2.0196175995036785e-08,0.1441739974587826,3.572912571397113e-52,0.43864723773177194
139.6,0.43656039438283767,0.44453350396940894,0.0009594799377308227,0.3018383501481165,3.100984181346217e-08,0.14173564287371979,1.1827227056927474e-51,0.4435740240316781
139.8,0.44163694416012467,0.44961005374669594,0.0012486423948027126,0.3090316799521482,4.726444274331579e-08,0.1393296841353023,3.8771514704366917e-51,0.4483614113518932
140.0,0.44546854013415615,0.4534416497207274,0.00045021672447081995,0.3160353843072685,7.151534020572117e-08,0.13695597717364788,1.2587566040273336e-50,0.4529914329962566
140.2,0.4502233988528397,0.45819650843941095,0.0007499730439454177,0.3228320599094061,1.0742823324307556e-07,0.13461436805782617,4.047618298797533e-50,0.45744653539546554
140.4,0.45383634722514943,0.4618094568117207,9.980172220408479e-05,0.329404801449499,1.6022006009098446e-07,0.1323046934199575,1.2891858585158337e-49,0.4617096550895166
140.6,0.4573876794151752,0.4653607890017465,-0.0004035042471467465,0.33573727512120366,2.372570086182279e-07,0.13002678087068098,4.067418645700747e-49,0.46576429324889324
140.8,0.46087664149036256,0.46884975107693383,-0.000744836248530778,0.34181378906112037,3.4885839822104863e-07,0.12778044940594602,1.2712720902547122e-48,0.4695945873254646
141.0,0.4645646536817269,0.47253776326829816,-0.0006476161951939341,0.34761936029073554,5.093676440065904e-07,0.12556550980511255,3.9364356053315847e-48,0.4731853794634921
141.2,0.4666581780242862,0.4746312876108575,-0.0018909937353572825,0.3531397777596736,7.385662120556929e-07,0.12338176502032912,1.2076505164668567e-47,0.47652228134621477
141.4,0.4697022705592727,0.477675380145844,-0.0019163550579060495,0.35836166112303147,1.063523521061807e-06,0.1212290105571975,3.670972470656746e-47,0.47959173520375004
141.6,0.4718196020799585,0.47979271166652976,-0.0025883590967798464,0.36327251492146245,1.5209951283962598e-06,0.11910703484671872,1.105734225476747e-46,0.4823810707633096
141.8,0.4741272062372691,0.4821003158238404,-0.002778242158443134,0.3678607778706562,2.160503090000695e-06,0.11701561960853732,3.3004864745533528e-46,0.4848785579822835
142.0,0.4758065479938602,0.48377965758043145,-0.003293797887453709,0.3721158670066445,3.0482557308122125e-06,0.11495454020550981,9.763158402254286e-46,0.48707345546788516
142.2,0.4780855220756252,0.4860586316621965,-0.0028974228905216393,0.3760282164745177,4.272088574915718e-06,0.11292356598962555,2.862300744138767e-45,0.4889560545527181
142.4,0.4796315294918428,0.48760463907841406,-0.0029130799840277333,0.37958931079019803,5.947632919847829e-06,0.11092246063932393,8.31725281568737e-45,0.4905177190624418
142.6,0.48110247752163854,0.4890755871082098,-0.0026753337697750235,0.3827917124475366,8.225942193627512e-06,0.10895098248825459,2.3955828882606375e-44,0.49175092087798483
142.8,0.482610852058298,0.4905839616448693,-0.0020653098134802983,0.3856290837857166,1.1302827100406786e-05,0.10700888484553256,6.839681837209675e-44,0.4926492714583496
143.0,0.4830470087573261,0.49102011834389736,-0.0021874312045354616,0.38809620307436626,1.543016650851095e-05,0.10509591630755807,1.9358893255788352e-43,0.4932075495484328
143.2,0.4834725086751108,0.4914456182616821,-0.0019761070848663964,0.3901889748155872,2.0929469501669637e-05,0.10321182106145968,5.432145569319168e-43,0.4934217253465485
143.4,0.48351485328645455,0.4914879628730258,-0.0018010185720676586,0.3919044343028088,2.8207962038578388e-05,0.10135633918024613,1.511244175025159e-42,0.4932889814450935
143.6,0.48351874623396496,0.4914918558205362,-0.0013158750609384984,0.39324074651578317,3.777745595228876e-05,0.09952920690973925,4.168656971210124e-42,0.4928077308814747
143.8,0.48353605376954384,0.4915091633561151,-0.00046846928501448337,0.3941971994687042,5.0276225051692144e-05,0.09773015694737366,1.1402016630562888e-41,0.4919776326411296
144.0,0.4828396891762301,0.49081279876280137,1.3193826414126253e-05,0.3947741921641418,6.649405928408795e-05,0.09595891871296136,3.0925496691019374e-41,0.49079960493638725
144.2,0.4816236379369531,0.4895967475235244,0.00032091098318592914,0.3949732173389783,8.740058985491197e-05,0.09421521861150531,8.318145516978845e-41,0.48927583654033846
144.4,0.47971320908337106,0.48768631866994233,0.00027652228936425605,0.39479683921953906,0.00011417687286860803,0.09249878028817037,2.2188925806809318e-40,0.4874097963805781
144.6,0.4776178846012014,0.4855909941877727,0.00038475269660270817,0.39424866653149043,0.00014825008417067477,0.09080932487550888,5.8704433279316785e-40,0.48520624149117
144.8,0.47536225904295254,0.4833353686295238,0.0006641453484216298,0.39333332103563384,0.00019133101242067879,0.08914657123304764,1.540476612820909e-39,0.4826712232811022
145.0,0.47224398473578755,0.4802170943223588,0.0004050024184279466,0.3920564018833534,0.0002454538412250605,0.08751023617935244,4.0097144515965867e-39,0.47981209190393087
145.2,0.4691762413838895,0.4771493509704608,0.0005118526623148489,0.390424446105066,0.00031301748640845655,0.08590003471667153,1.0353096429371532e-38,0.47663749830814595
145.4,0.4657988094043677,0.47377191899093896,0.0006145256758035567,0.38844488556154055,0.0003968275053112909,0.08431568024828358,2.6518546186820447e-38,0.4731573933151354
145.6,0.46275349249556263,0.4707266020821339,0.0013435792642700894,0.38612600070135084,0.0005001373278493257,0.08275688478866365,6.738694662776673e-38,0.4693830228178638
145.8,0.4586462443697458,0.4666193539563171,0.0012924360287516756,0.3834768714780145,0.0006266872829668384,0.08122335916658405,1.6989173532501204e-37,0.4653269179275654
146.0,0.45432908701892005,0.4623021966054913,0.001299317975974601,0.38050732578760704,0.0007807396206318225,0.07971481322127791,4.2497437303212744e-37,0.4610028786295167
146.2,0.4498487918704892,0.4578219014570605,0.001395952200765882,0.3772278857918415,0.0009671074726686551,0.07823095599178444,1.0548013442285644e-36,0.4564259492562946
146.4,0.4453941167130589,0.45336722629963017,0.001754842435506554,0.3736497124928996,0.001191175471625805,0.07677149589959825,2.5978812694786446e-36,0.4516123838641236
146.6,0.44022558609276463,0.4481986956793359,0.0016190962565034717,0.3697845489248157,0.0014589095732583128,0.07533614092475839,6.349385331214298e-36,0.44657959942283243
146.8,0.43490190300534853,0.4428750125919198,0.0015288979707737682,0.36564466232198056,0.0017768535236767243,0.07392459877548875,1.5400354752633006e-35,0.44134611462114604
147.0,0.4293345851805118,0.4373076947670831,0.001376222701530594,0.3612427856186958,0.0021521093953235635,0.07253657705153313,3.707141299883281e-35,0.4359314720655525
147.2,0.4229878627966532,0.43096097238322445,0.0006048306532007164,0.3565920586245904,0.002592299704133521,0.07117178340129983,8.856853755561485e-35,0.43035614173002373
147.4,0.41709754820951894,0.4250706577960902,0.0004292540850015514,0.35170596920954567,0.0031055088285901235,0.06982992567295288,2.100265025479517e-34,0.42464140371108866
147.6,0.41076320952670053,0.4187363191132718,-7.288955626344462e-05,0.34659829481854965,0.0037002017914095557,0.06851071205957605,4.943621621586058e-34,0.41880920866953525
147.8,0.4049095996219684,0.41288270920853964,6.944051995638745e-07,0.34128304462193015,0.004385118942875918,0.06721385123853403,1.1550874781401074e-33,0.4128820148033401
148.0,0.39889091527378334,0.4068640248603546,-1.8575936757081468e-05,0.3357744025899279,0.005169145702015747,0.065939052505168,2.6791987121588166e-33,0.4068826007971117
148.2,0.39298226263900954,0.4009553722255808,0.0001215173005369996,0.33008667176262896,0.006061157261470362,0.06468602590094447,6.16931682041714e-33,0.4008338549250438
148.4,0.38671464796528826,0.39468775755185953,-7.078378168473565e-05,0.324234219967321,0.00706983903003009,0.06345448233619319,1.4103693324289863e-32,0.39475854133354427
148.6,0.38035936114161767,0.38833247072818894,-0.0003465747460673074,0.3182314272153479,0.008203484551350181,0.062244133707558186,3.2012061745878435e-32,0.38867904547425625
148.8,0.3743142740113912,0.3822873835979625,-0.0003297180706906544,0.3120926349898703,0.009469773668497609,0.06105469301028525,7.214407263243285e-32,0.38261710166865315
149.0,0.3695040624824257,0.37747717206899695,0.0008836652441115977,0.30583209761482083,0.010875534764583776,0.05988587444548079,1.614414074820078e-31,0.37659350682488535
149.2,0.36426911744437346,0.37224222703094473,0.001614401678072419,0.2994639358737603,0.012426495956654696,0.0587373935224573,3.5873799650265575e-31,0.3706278253528723
149.4,0.3585904036746084,0.3665635132611797,0.0018254219736152377,0.2930020930257993,0.014127031105468,0.05760896715629716,7.916053480573985e-31,0.36473809128756446
149.6,0.3535943914981776,0.3615675010847489,0.00262698660219135,0.2864602933441344,0.015979907377668242,0.056500313760754865,1.734720608016401e-30,0.35894051448255754
149.8,0.34817506966722145,0.3561481792537927,0.0028989808268546358,0.27985200328139176,0.017986041808928082,0.05541115333661824,3.775376401789023e-30,0.3532491984269381
150.0,0.3421948572086228,0.3501679667951941,0.0024920890752855307,0.27319039534503287,0.020144274819222645,0.054341207555653026,8.160582269106889e-30,0.34767587771990854
150.5,0.3294296305490556,0.3374027401356269,0.003090946139233608,0.2563865190224395,0.02617667833587842,0.051748596638075364,5.442043750739783e-29,0.33431179399639327
151.0,0.3158837312739184,0.32385684086048966,0.0020589965471642935,0.23951908406126002,0.033008676785177264,0.049270083466888125,3.480783877222504e-28,0.32179784431332537
151.5,0.30300728605011207,0.31098039563668334,0.0009018030672889865,0.22276208587565113,0.04041503092025228,0.04690147577349098,2.136833671224819e-27,0.31007859256939435
152.0,0.2903119192882102,0.2982850288747815,-0.00069833752086218,0.2062713289501252,0.0480733724977093,0.04463866494780918,1.259916734368281e-26,0.29898336639564366
152.5,0.27806615138308943,0.2860392609696607,-0.002206180128265567,0.19018327072172286,0.05558453942256214,0.04247763095364124,7.139762173654125e-26,0.28824544109792627
153.0,0.26721467871606386,0.27518778830263513,-0.002347949172780306,0.1746144757754218,0.0625068152475593,0.040414446452434354,3.891206884944035e-25,0.27753573747541543
153.5,0.25576170194033626,0.26373481152690753,-0.002772116993795204,0.15966161899289824,0.06840002933055767,0.03844528019724683,2.0409209112225126e-24,0.26650692852070273
154.0,0.24399672256343327,0.2519698321500045,-0.0028717430319247783,0.1454019660046574,0.07287320942141924,0.03656639975585266,1.0308292293442976e-23,0.2548415751819293
154.5,0.23162649321612616,0.2395996028026974,-0.002697231219704388,0.13189425329113189,0.07562840711217875,0.03477417361909115,5.016933095366934e-23,0.2422968340224018
155.0,0.2184054767384055,0.22637858632497673,-0.00236011962186361,0.11917988814795764,0.07649374505118242,0.03306507274770029,2.354226800008461e-22,0.22873870594684034
155.5,0.20531885318351345,0.2132919627700847,-0.0008686891103137084,0.10728438994548518,0.07544059032690778,0.031435671608005415,1.065808539190842e-21,0.2141606518803984
156.0,0.19084844172748697,0.1988215513140582,0.00013729508354481945,0.09621899807537374,0.07258260941114421,0.02988264874399542,4.657884678777164e-21,0.1986842562305134
156.5,0.1759140748118056,0.18388718439837684,0.001344376396165331,0.08598237806496432,0.0681576430067284,0.02840278693051878,1.966210333253628e-20,0.1825428080022115
