wavelength,absorbance,absorbance_bk,residual_3gauss,Gauss_1,Gauss_2,Gauss_3,Gauss_4,Gauss_fit
117.0,0.9965412493732544,0.9960362991832323,0.00030134497852396525,1.7763036747599847e-06,1.2054539707904522e-57,0.9957331779010337,3.56562936150973e-132,0.9957349542047084
117.5,0.977169490330472,0.9766645401404499,-0.010689021447769509,3.177420290005756e-06,1.0205592802326197e-55,0.9873503841679294,2.495955533731531e-129,0.9873535615882194
118.0,0.9782994592999207,0.9777945091098986,4.473010742556127e-05,5.58191271012064e-06,7.707368880203032e-54,0.9777441970897629,1.5382325237827626e-126,0.9777497790024731
118.5,0.9675423512775329,0.9670374010875108,4.279752183444785e-05,9.634155597414327e-06,5.204775320832876e-52,0.9669849694100789,8.3672964736625e-124,0.9669946035656763
119.0,0.9532208987220384,0.9527159485320164,-0.002445277443686722,1.6343073749206624e-05,3.1502771305568287e-50,0.9551448829019539,4.027123132969784e-121,0.9551612259757031
119.5,0.946298864438604,0.945793914248582,0.0034692545375584194,2.7258788529261176e-05,1.7129532054535915e-48,0.9422974009224943,1.7190776877855834e-118,0.9423246597110235
120.0,0.9302606873163904,0.9297557371263684,0.0011942679984161542,4.4718937548732654e-05,8.386252018479945e-47,0.9285167501904035,6.523903658863868e-116,0.9285614691279522
120.5,0.9175208766782531,0.917015926488231,0.0030663077056465315,7.218453257160223e-05,3.704836056521734e-45,0.9138774342500129,2.2061171461199923e-113,0.9139496187825845
121.0,0.9022334707661444,0.9017285205761223,0.0031600524608083047,0.0001146876180931716,1.4800611438643272e-43,0.8984537804972208,6.662446135245427e-111,0.898568468115314
121.5,0.8886128772748612,0.8881079270848391,0.005608990700644356,0.0001794142915023678,5.358081107586748e-42,0.8823195220926924,1.8008445210860885e-108,0.8824989363841947
122.0,0.8686189391170716,0.8681139889270495,0.002290127171516776,0.00027644617638167144,1.761352625388911e-40,0.865547415579151,4.366043525934499e-106,0.8658238617555327
122.5,0.850130627414802,0.84962567722478,0.0009971022087680304,0.0004196804607195614,5.268157853198579e-39,0.8482088945552924,9.51437934132819e-104,0.848628575016012
123.0,0.8321853995101415,0.8316804493201194,0.0006787476039217255,0.0006279423760747858,1.4364643881711726e-37,0.8303737593401229,1.867430479823868e-101,0.8310017017161977
123.5,0.8118017643125565,0.8112968141225344,-0.0017393819188088466,0.0009262938522510573,3.577530888620785e-36,0.8121099021890922,3.307892061331109e-99,0.8130361960413433
124.0,0.792035347184373,0.7915303969943509,-0.0033001979043604246,0.0013475276017649342,8.15331740654273e-35,0.7934830672969464,5.298503976660489e-97,0.7948305948987113
124.5,0.7719300062424346,0.7714250560524125,-0.005065405473529627,0.0019338169852443983,1.703489123646148e-33,0.7745566445406977,7.689244833893355e-95,0.7764904615259421
125.0,0.7535285549146944,0.7530236047246723,-0.00510636002845799,0.002738469074863608,3.2686783398844196e-32,0.7553914956782667,1.0128795927261221e-92,0.7581299647531303
125.5,0.7341749317844394,0.7336699815944173,-0.006203532264997702,0.003827702337599846,5.770176984093721e-31,0.7360458115218151,1.2133137260359665e-90,0.739873513859415
126.0,0.7158701132852366,0.7153651630952146,-0.006492178256902625,0.005282342904643303,9.387059268003768e-30,0.7165749984474739,1.3240661747152627e-88,0.7218573413521172
126.5,0.6985884777550229,0.6980835275650008,-0.0061473716136386525,0.007199306696360656,1.4096661382118978e-28,0.6970315924822788,1.3186538591337828e-86,0.7042308991786395
127.0,0.6820111966088626,0.6815062464188405,-0.005651664175791993,0.00969271147285311,1.9572934387378884e-27,0.6774651991217794,1.2005582965599457e-84,0.6871579105946325
127.5,0.6674095460548009,0.6669045958647788,-0.003912307361823575,0.012894446251469849,2.5167469298878314e-26,0.6579224569751325,1.0009162785854881e-82,0.6708169032266024
128.0,0.6541736959419641,0.653668745751942,-0.001732296165419922,0.01695401861205959,3.00153037412737e-25,0.6384470233053023,7.654016326107924e-81,0.6554010419173619
128.5,0.6409776296498056,0.6404726794597836,-0.0006444061331818407,0.022037506065461135,3.325264897941938e-24,0.6190795795275043,5.3772218694244545e-79,0.6411170855929654
129.0,0.63109307329934,0.6305881231093179,0.002404810243292199,0.028325458120101347,3.427174592541472e-23,0.5998578547459243,3.476068959209024e-77,0.6281833128660257
129.5,0.6216893254277536,0.6211843752377315,0.004358077615929101,0.036009632177280204,3.2908240403019324e-22,0.5808166654445222,2.0708614963297681e-75,0.6168262976218024
130.0,0.6138259135667014,0.6133209633766793,0.00604449503026705,0.045288498847121494,2.948150691792043e-21,0.5619879694992908,1.1386812787340481e-73,0.6072764683464122
130.5,0.6088578973579304,0.6083529471679083,0.00859049529675382,0.05636151912687491,2.467606585504545e-20,0.5434009327442796,5.787408689836801e-72,0.5997624518711545
131.0,0.60429625838926,0.603791308199238,0.009287027827342809,0.06942227397237814,1.9323013944983564e-19,0.5250820063995171,2.7228634590420732e-70,0.5945042803718952
131.5,0.601781397501088,0.6012764473110659,0.009570822056580774,0.08465061150114606,1.41750683276749e-18,0.5070550137533391,1.1875257765478677e-68,0.5917056252544851
132.0,0.6018814977861491,0.601376547596127,0.009831240444267864,0.10220406256921873,9.754228465530406e-18,0.4893412445826404,4.8077134861767834e-67,0.5915453071518592
132.5,0.6040130343006792,0.6035080841106572,0.00933967305340666,0.12220885516711325,6.304230193534143e-17,0.47195955589013716,1.8092675927980828e-65,0.5941684110572505
133.0,0.6086180331521713,0.6081130829621493,0.008435680164029069,0.14475092516177948,3.8316388717774326e-16,0.45492647763634037,6.337439491087273e-64,0.5996774027981202
133.5,0.6157682136382248,0.6152632634482027,0.007139572258948346,0.16986736894522164,2.1927080621406636e-15,0.4382563222440305,2.068891890020034e-62,0.6081236911892544
134.0,0.6248126378548747,0.6243076876648527,0.00480758378039059,0.19753880713121216,1.1828776176041975e-14,0.42196129675323807,6.302737348692498e-61,0.6195001038844621
134.5,0.6363236601220492,0.6358187099320272,0.002083969578663858,0.22768312374925817,6.022399012041205e-14,0.4060516166040449,1.7940360499680656e-59,0.6337347403533633
135.0,0.6506464178663354,0.6501414676763133,-0.0005451630708208643,0.2601510106250218,2.897124110426534e-13,0.3905356201218227,4.777224501979847e-58,0.6506866307471342
135.5,0.66777430848065,0.667269358290628,-0.0028742068872364968,0.2947236823023842,1.3183148524405165e-12,0.37541988287416195,1.191471870919427e-56,0.6701435651778644
136.0,0.6873746064133046,0.6868696562232826,-0.004952710734632104,0.3311130357923495,5.680701606220799e-12,0.3607093311598844,2.786545373815224e-55,0.6918223669579147
136.5,0.7102754592169668,0.7097705090269447,-0.005601261620250209,0.3689644166462309,2.3205015915647496e-11,0.34640735397775896,6.118187730088295e-54,0.7153717706471949
137.0,0.735360419562576,0.734855469372554,-0.005522468799051161,0.4078620251762496,8.995292538380183e-11,0.3325159129054026,1.2625363485626899e-52,0.7403779381716051
137.5,0.7629242269645515,0.7624192767745295,-0.00395323514703616,0.4473368621933147,3.3124484991099995e-10,0.31903564939700607,2.4513739887921263e-51,0.7663725119215656
138.0,0.7916490997186064,0.7911441495285844,-0.0016988218440100455,0.48687698113086897,1.159901064275534e-09,0.3059659890818244,4.483223374145266e-50,0.7928429713725944
138.2,0.8032364016375018,0.8027314514474797,-0.0007117732691533929,0.5025904721561942,1.8884460019607762e-09,0.3008527506719929,1.4102318931061662e-49,0.8034432247166331
138.4,0.8145524300510506,0.8140474798610285,5.060157988501235e-05,0.5181920803198171,3.050604696097808e-09,0.29580479491072176,4.394769284761626e-49,0.8139968782811435
138.6,0.8260584884175192,0.8255535382274971,0.001085766880956185,0.5336458246991664,4.889808236405501e-09,0.2908219417575662,1.3569251258932201e-48,0.8244677713465409
138.8,0.8364425971803072,0.8359376469902852,0.0011180671337311932,0.5489155850199995,7.777657562721018e-09,0.28590398705889697,4.1512469875161345e-48,0.834819579856554
139.0,0.8472740893954404,0.8467691392054183,0.0017531679984522652,0.5639652554456077,1.2276745432212093e-08,0.281050703484613,1.2584401006188172e-47,0.845015971206966
139.2,0.8580216218789598,0.8575166716889377,0.002495911608523249,0.578758899400421,1.9231858323936724e-08,0.2762618414481352,3.780471634186353e-47,0.8550207600804145
139.4,0.8677475143712883,0.8672425641812662,0.002444499841969483,0.5932609044285938,2.9901207552460465e-08,0.2715371300094954,1.125503440501008e-46,0.8647980643392967
139.6,0.877895767377288,0.877390817187266,0.0030783571918369113,0.6074361360905187,4.614358923704288e-08,0.266876277761321,3.320953567867341e-46,0.8743124599954291
139.8,0.8865084215411203,0.8860034713510982,0.0024743370595499137,0.6212500899110448,7.068294979028698e-08,0.26227897369755376,9.712285000685781e-46,0.8835291342915483
140.0,0.8960879102150127,0.8955829600249906,0.0031689240688376197,0.6346690404122898,1.0747906345662769e-07,0.2577448880647998,2.815463852081771e-45,0.892414035956153
140.2,0.9039652689482045,0.9034603187581824,0.0025262970282659003,0.6476601862914535,1.6224228511862461e-07,0.2532736731961779,8.090502292501307e-45,0.9009340217299165
140.4,0.91152217177112,0.911017221581098,0.001960223272530426,0.6601917908389114,2.431420417081686e-07,0.2488649643276144,2.3047554996698e-44,0.9090569983085676
140.6,0.918071510467104,0.9175665602770819,0.0008145013729743411,0.6722333167342658,3.617733173179741e-07,0.24451838039652457,6.509156602673187e-44,0.9167520589041076
140.8,0.9244092374569104,0.9239042872668883,-8.532642638792165e-05,0.6837555544071071,5.344633315930703e-07,0.24023352482283755,1.822642511353113e-43,0.9239896136932763
141.0,0.9303523250330593,0.9298473748430373,-0.0008941386560273878,0.6947307432043281,7.840223539514905e-07,0.23600998627238254,5.060359904252672e-43,0.9307415134990646
141.2,0.9350859111337635,0.9345809609437414,-0.0024002051941246494,0.7051326846667182,1.1420685286578975e-06,0.23184733940261928,1.393126214312532e-42,0.9369811661378661
141.4,0.9401298375697316,0.9396248873797095,-0.0030587575810325784,0.714936847282979,1.6520869919641386e-06,0.22774514559077108,3.803246535776897e-42,0.9426836449607421
141.6,0.9447814701220941,0.9442765199320721,-0.003549269290005097,0.7241204621591287,2.373418554319715e-06,0.2237029536443941,1.0296723528101387e-41,0.9478257892220772
141.8,0.9488173344470237,0.9483123842570016,-0.004073911764402194,0.73266260911429,3.3864126585802725e-06,0.21972030049445518,2.764710024743374e-41,0.9523862960214038
142.0,0.9521050331588675,0.9516000829688455,-0.004745720714473656,0.740544292789585,4.799022727239473e-06,0.21579671187100688,7.362601363880254e-41,0.9563458036833191
142.2,0.9553160255746375,0.9548110753846154,-0.0048758911798859605,0.7477485084344955,6.755168453013762e-06,0.21193170296155286,1.944774069788706e-40,0.9596869665645014
142.4,0.9580376043063208,0.9575326541162987,-0.00486186728725313,0.7542602971137298,9.445237594597351e-06,0.20812477905222754,5.095514015402041e-40,0.9623945214035519
142.6,0.9611725274796172,0.9606675772895952,-0.0037877681663587293,0.7600667901567507,1.311914728938967e-05,0.2043754361519138,1.3243794583395529e-39,0.9644553454559539
142.8,0.9624293635770211,0.9619244133869991,-0.003934093392200078,0.7651572427508414,1.810242892210394e-05,0.2006831615994357,3.414812660400351e-39,0.9658585067791992
143.0,0.9640536183109752,0.9635486681209532,-0.003046639026773046,0.7695230566562133,2.48158375174243e-05,0.19704743465399538,8.735254665992503e-39,0.9665953071477262
143.2,0.9642114593080064,0.9637065091179844,-0.0029528090605881463,0.7731577920976325,3.379901194048143e-05,0.19346772706899956,2.216983906032171e-38,0.9666593181785725
143.4,0.9640060263910972,0.9635010762010752,-0.00254533512948385,0.7760571689605329,4.5738720553725385e-05,0.18994350364947243,5.582794532451661e-38,0.966046411330559
143.6,0.9636194926492954,0.9631145424592733,-0.0016402400365087555,0.7782190574902335,6.150221232104308e-05,0.18647422279322756,1.3949754033902327e-37,0.9647547824957821
143.8,0.9623898095739392,0.9618848593839171,-0.0009001125410541544,0.7796434587599503,8.217614902953153e-05,0.1830593370159914,3.4588421269574716e-37,0.9627849719249713
144.0,0.9602383099008807,0.9597333597108586,-0.000406520499630858,0.7803324752364219,0.00010911151336728773,0.1796982934607003,8.510743735805379e-37,0.9601398802104895
144.2,0.9573204341433263,0.9568154839533043,-9.29703172003471e-06,0.780290271830712,0.0001439747631543287,0.176390534391158,2.0782605370021062e-36,0.9568247809850243
144.4,0.953025068773,0.9525201185829779,-0.0003272122906908814,0.7795230278756892,0.000188805327687042,0.1731354976702926,5.0367583065543036e-36,0.9528473308736688
144.6,0.9482248478568572,0.9477198976668352,-0.0004976793895720144,0.778038880520573,0.0002460793126092425,0.1699326172232249,1.2115564008918572e-35,0.9482175770564072
144.8,0.9437493925969171,0.9432444424068951,0.00029647985367420304,0.7758478600764845,0.00031877899135549886,0.16678132348538088,2.892678395177026e-35,0.9429479625532209
145.0,0.9375902030951347,0.9370852529051127,3.1923871404049287e-05,0.7729618178849992,0.0004104673128137003,0.16368104383589582,6.855562096399315e-35,0.9370533290337086
145.2,0.9320099989496323,0.9315050487596103,0.0009541321806662006,0.7693943473140965,0.000525366248318752,0.16063120301652878,1.6128524018917727e-34,0.9305509165789441
145.4,0.9252155922791256,0.9247106420891036,0.001250282698016969,0.7651606985126446,0.000668437342088567,0.15763122353635348,3.766837517533733e-34,0.9234603593910866
145.6,0.9177051900336916,0.9172002398436695,0.001396563877858359,0.76027768757556,0.0008454623277870753,0.15468052606246405,8.733971114092973e-34,0.9158036759658111
145.8,0.9104636792895904,0.9099587290995683,0.0023534773706082035,0.7547636007871373,0.001063121144878641,0.15177852979694412,2.0105780861852198e-33,0.9076052517289601
146.0,0.9012756913072754,0.9007707411172533,0.001878929505361615,0.7486380946198654,0.0013290641516625539,0.14892465284036374,4.5954286602285566e-33,0.8988918116118917
146.2,0.8924688609921789,0.8919639108021569,0.0022715312775702934,0.7419220921704115,0.0016519748121211187,0.14611831254205399,1.0429137597835253e-32,0.8896923795245866
146.4,0.8835194581892474,0.8830145079992253,0.0029762867879279398,0.734637676713615,0.0020416186602702033,0.14335892583741222,2.350224138132273e-32,0.8800382212112974
146.6,0.8731065363205861,0.872601586130564,0.0026388195569050366,0.726807983049561,0.002508873951579288,0.14064590957251877,5.259321884857682e-32,0.869962766573659
146.8,0.8620543866644541,0.861549436474432,0.0020479292182186137,0.7184570873081385,0.003065739131780235,0.13797868081629472,1.168774457629372e-31,0.8595015072562134
147.0,0.8515201431871043,0.8510151929970823,0.0023233278504810606,0.7096098958606513,0.0037253121254545284,0.13535665716049539,2.579484427841686e-31,0.8486918651466012
147.2,0.8394181576012992,0.8389132074112772,0.0013401799290514438,0.70029203396881,0.004501736505641953,0.13277925700777374,5.654014728963115e-31,0.8375730274822257
147.4,0.8276872330600232,0.8271822828700012,0.000996538359726129,0.6905297347787077,0.005410109883472484,0.13024589984809487,1.2309012670108841e-30,0.826185744510275
147.6,0.815124210580867,0.814619260390845,4.717424608036147e-05,0.6803497292410607,0.006466350379947453,0.1277560065237564,2.661656677096119e-30,0.8145720861447646
147.8,0.8029296957672718,0.8024247455772497,-0.00035040924442708565,0.6697791375097123,0.007687017828695562,0.12530899948326907,5.716938339327963e-30,0.8027751548216768
148.0,0.7894504894394747,0.7889455392494527,-0.0018932135298965758,0.6588453623385627,0.009089087416412948,0.12290430302437358,1.219769034652647e-29,0.7908387527793492
148.2,0.7775992748932928,0.7770943247032708,-0.0017126785776649944,0.6475759849627897,0.01068967479171141,0.12054134352643468,2.5853190144750486e-29,0.7788070032809358
148.4,0.7661342082795172,0.7656292580894951,-0.00109466874105979,0.6359986639143129,0.012505713243755686,0.11821954967248627,5.443682450267368e-29,0.7667239268305549
148.6,0.7547940038151448,0.7542890536251228,-0.00034392155451201667,0.6241410371838287,0.014553585334631166,0.11593835266117496,1.138762219503307e-28,0.7546329751796348
148.8,0.7439888465283971,0.7434838963383751,0.0009073685129667997,0.6120306281031003,0.01684871331345535,0.11369718640885267,2.366760489487484e-28,0.7425765278254083
149.0,0.732907487846803,0.732402537656781,0.0018071799522106913,0.5996947552819012,0.019405114680584555,0.11149548774208448,4.887376400803444e-28,0.7305953577045703
149.2,0.7222610696165509,0.7217561194265288,0.003028044623167747,0.5871604468940441,0.02223493132851198,0.10933269658080502,1.0028051568943545e-27,0.7187280748033611
149.4,0.711620903339823,0.7111159531498009,0.004105394797061734,0.5744543595672277,0.025347942673127784,0.10720825611238372,2.0445397472435595e-27,0.7070105583527392
149.6,0.7009315065487287,0.7004265563587067,0.004951166301052856,0.5616027020917334,0.028751075009081018,0.10512161295683943,4.1422048851314596e-27,0.6954753900576538
149.8,0.6903101150105558,0.6898051648205338,0.005653862495684225,0.5486311641239279,0.032447920877478956,0.10307221732344277,8.339562425949065e-27,0.6841513023248496
150.0,0.6795961742993856,0.6790912241093635,0.006028567501109694,0.5355648500223534,0.036438283426947195,0.10105952315895315,1.668588052413052e-26,0.6730626566082538
150.5,0.6522786161996177,0.6517736660095956,0.005287529230043608,0.5026431859339515,0.04765814230044449,0.096184808545156,9.196996878857831e-26,0.646486136779552
151.0,0.626320327305516,0.625815377115494,0.004171818730218324,0.46964208773666083,0.060473729520029516,0.09152774112858529,4.880106375797796e-25,0.6216435583852756
151.5,0.6001290696406412,0.5996241194506191,0.0011620161126436601,0.43689176718475603,0.07449020658343994,0.08708012956977951,2.4944620217167336e-24,0.5984621033379754
152.0,0.5757812249317419,0.5752762747417198,-0.0013664728508335777,0.4046874276066223,0.08912135954593317,0.08283396043999788,1.2290278348165502e-23,0.5766427475925534
152.5,0.5529666631600858,0.5524617129700637,-0.0032301830251173502,0.37328723511154643,0.103623254365664,0.07878140651797061,5.840520646024691e-23,0.5556918959951811
153.0,0.5314676353740693,0.5309626851840472,-0.0040192454993130955,0.34291141887284593,0.11715567820306123,0.07491483360745319,2.678608807947925e-22,0.5349819306833603
153.5,0.5098145373198009,0.5093095871297788,-0.004524142784328444,0.31374238357429485,0.1288645403440561,0.0712268059957563,1.186295623371968e-21,0.5138337299141073
154.0,0.4868751425177743,0.48637019232775225,-0.005239280852872452,0.28592569925732314,0.13797368325571752,0.06771009066758406,5.076399041188324e-21,0.4916094731806247
154.5,0.46315352056313014,0.4626485703731081,-0.005152882821918503,0.25957182369331666,0.1438719691190773,0.06435766038263263,2.1001311263498312e-20,0.4678014531950266
155.0,0.43838677624833405,0.437881826058312,-0.0042210626391804285,0.2347584092490153,0.1461817837289355,0.06116269571954165,8.404444301876278e-20,0.4421028886974924
155.5,0.41260320623818086,0.4120982560481588,-0.002351617662641081,0.2115330490360489,0.1447982384917826,0.05811858618296836,3.2552412482176004e-19,0.4144498737107999
156.0,0.38480320348751135,0.3842982532974893,-0.0007306286775761728,0.18991632484835294,0.13989362666188995,0.05521893046482258,1.2209678731690852e-18,0.38502888197506546
156.5,0.35617230315827986,0.3556673529682578,0.0014169215904930033,0.16990503086645367,0.13188786456622797,0.052457535945083185,4.437140720523309e-18,0.3542504313777648
157.0,0.32769750579639406,0.327192555606372,0.004497347902558513,0.1514754612447251,0.12139132894694477,0.0498284175121436,1.5631725747957184e-17,0.3226952077038135
157.5,0.2982720747182075,0.29776712452818543,0.006724148536737251,0.13458666547205442,0.10913051474207623,0.047325795777317506,5.3411917354579706e-17,0.2910429759914482
