wavelength,absorbance,absorbance_bk,residual_3gauss,Gauss_1,Gauss_2,Gauss_3,Gauss_4,Gauss_fit
117.0,0.9965412493732544,0.9960362991832323,0.00033721221944937874,1.7832906203737338e-06,1.2342996220760036e-57,0.9956973036731626,3.3531592774147636e-132,0.995699086963783
117.5,0.977169490330472,0.9766645401404499,-0.010658262462010626,3.189191738605776e-06,1.044628903288001e-55,0.9873196134107219,2.350340118962799e-129,0.9873228026024605
118.0,0.9782994592999207,0.9777945091098986,7.046757757145361e-05,5.601353545635943e-06,7.886504476131312e-54,0.9777184401787815,1.4503761779498096e-126,0.9777240415323272
118.5,0.9675423512775329,0.9670374010875108,6.361625347528488e-05,9.665636086992026e-06,5.323972075535697e-52,0.9669641191979486,7.89946641903908e-124,0.9669737848340355
119.0,0.9532208987220384,0.9527159485320164,-0.0024292608236343716,1.639306504084764e-05,3.221355670155093e-50,0.9551288162906099,3.806718711243011e-121,0.9551452093556507
119.5,0.946298864438604,0.945793914248582,0.0034805971435318828,2.733665350555794e-05,1.7510248519031265e-48,0.9422859804515445,1.6269874956023827e-118,0.9423133171050501
120.0,0.9302606873163904,0.9297557371263684,0.001201073593717461,4.483790681888772e-05,8.569833178466193e-47,0.9285098256258321,6.181855416390396e-116,0.9285546635326509
120.5,0.9175208766782531,0.917015926488231,0.003068719476681081,7.236285269956121e-05,3.784703406961341e-45,0.9138748441588505,2.0929190254962905e-113,0.91394720701155
121.0,0.9022334707661444,0.9017285205761223,0.0031582169577986097,0.0001149498230891052,1.5114773998933095e-43,0.8984553537952346,6.3279096822786205e-111,0.8985703036183237
121.5,0.8886128772748612,0.8881079270848391,0.005603055034773763,0.00017979249646025183,5.470048418317002e-42,0.8823250795536051,1.7123629762609296e-108,0.8825048720500653
122.0,0.8686189391170716,0.8681139889270495,0.002280236409515801,0.0002769812221968321,1.797582464596891e-40,0.8655567712953368,4.1561503599721236e-106,0.8658337525175337
122.5,0.850130627414802,0.84962567722478,0.0009833972324289064,0.0004204226510226569,5.374804230310652e-39,0.8482218573413284,9.066881612864425e-104,0.8486422799923511
123.0,0.8321853995101415,0.8316804493201194,0.0006613638038807101,0.0006289514442920318,1.4650782588168077e-37,0.8303901340719467,1.7815052569053953e-101,0.8310190855162387
123.5,0.8118017643125565,0.8112968141225344,-0.001760314633946547,0.000927637683637421,3.647641661178598e-36,0.8121294910728435,3.1590044876899053e-99,0.813057128756481
124.0,0.792035347184373,0.7915303969943509,-0.003324553190097612,0.0013492791216227883,8.310490589086741e-35,0.7935056710628258,5.065235719005238e-97,0.7948549501844485
124.5,0.7719300062424346,0.7714250560524125,-0.005093056029343068,0.0019360485234003633,1.7357850064953025e-33,0.7745820635583552,7.35815565382087e-95,0.7765181120817556
125.0,0.7535285549146944,0.7530236047246723,-0.00513716971096112,0.0027412434443063126,3.329612718736407e-32,0.7554195309913272,9.702274374024982e-93,0.7581607744356335
125.5,0.7341749317844394,0.7336699815944173,-0.006237344046587379,0.003831059840848835,5.875926430794148e-31,0.7360762658001558,1.1633516648250418e-90,0.7399073256410047
126.0,0.7158701132852366,0.7153651630952146,-0.006528797286079024,0.00528628352450726,9.556154438043137e-30,0.7166076768567864,1.2707544823419802e-88,0.7218939603812936
126.5,0.6985884777550229,0.6980835275650008,-0.006186542762539271,0.0072037668562716616,1.4346202392923364e-28,0.6970663034712684,1.2667440019656042e-86,0.7042700703275401
127.0,0.6820111966088626,0.6815062464188405,-0.0056930436889407465,0.009697534979691093,1.9913353780220416e-27,0.6775017551280902,1.1543554805586302e-84,0.6871992901077812
127.5,0.6674095460548009,0.6669045958647788,-0.003955428554314078,0.012899349367368163,2.5597437624749465e-26,0.6579606750517247,9.632625280938215e-83,0.6708600244190929
128.0,0.6541736959419641,0.653668745751942,-0.0017765295556624316,0.016958549638038087,3.0518898464174526e-25,0.6384867256695663,7.372577844734399e-81,0.6554452753076044
128.5,0.6409776296498056,0.6404726794597836,-0.0006889149201737554,0.02204100034409756,3.380042885373018e-24,0.6191205940358597,5.183983601902965e-79,0.6411615943799573
129.0,0.63109307329934,0.6305881231093179,0.002361117862846984,0.028326989949423294,3.4825930107979617e-23,0.5999000152970476,3.3539954940375485e-77,0.6282270052464709
129.5,0.6216893254277536,0.6211843752377315,0.004316597189038762,0.03600796573403452,3.3430460935548787e-22,0.5808598123146582,1.9997994995408085e-75,0.6168677780486927
130.0,0.6138259135667014,0.6133209633766793,0.006006972968599533,0.045282040794730444,2.9940514787019175e-21,0.5620319496133493,1.1005047127734687e-73,0.6073139904080798
130.5,0.6088578973579304,0.6083529471679083,0.008559071206104552,0.05634827607520471,2.5052902931617945e-20,0.543445599886599,5.597851130347114e-72,0.5997938759618038
131.0,0.60429625838926,0.603791308199238,0.009264268526355535,0.06939981830458518,1.961237629085193e-19,0.5251272213682973,2.6357474215487995e-70,0.5945270396728825
131.5,0.601781397501088,0.6012764473110659,0.009559743615294658,0.08461605923295272,1.4383162469858122e-18,0.5071006444628186,1.1504164863022125e-68,0.5917167036957712
132.0,0.6018814977861491,0.601376547596127,0.009835314665323724,0.10215406681369452,9.894564421967979e-18,0.48938716611710875,4.660991020543324e-67,0.5915412329308033
132.5,0.6040130343006792,0.6035080841106572,0.009362815181889306,0.12213961841490968,6.393092729419322e-17,0.47200565051385807,1.7553501410134474e-65,0.5941452689287678
133.0,0.6086180331521713,0.6081130829621493,0.008482215253969194,0.1446582329447798,3.884537730213914e-16,0.45497263476339983,6.153040750582121e-64,0.5996308677081801
133.5,0.6157682136382248,0.6152632634482027,0.007214178530008386,0.16974664654615412,2.222347985465503e-15,0.4383024383720379,2.0101229990384547e-62,0.6080490849181943
134.0,0.6248126378548747,0.6243076876648527,0.004915212427573423,0.1973851998725769,1.1985279918959678e-14,0.4220072753646904,6.127973577637445e-61,0.6193924752372792
134.5,0.6363236601220492,0.6358187099320272,0.0022297417888028637,0.22749160010413422,6.100362557891294e-14,0.4060973680390291,1.745483539958601e-59,0.6335889681432243
135.0,0.6506464178663354,0.6501414676763133,-0.000356079770234774,0.2599164860206832,2.9338074472887534e-13,0.39058106142557153,4.6510536062175804e-58,0.6504975474465481
135.5,0.66777430848065,0.667269358290628,-0.0026367394618413975,0.29444116012832394,1.3346354771971459e-12,0.3754649376228108,1.1607665334113848e-56,0.6699060977524693
136.0,0.6873746064133046,0.6868696562232826,-0.004662033925375342,0.3307777608753137,5.7494345659701615e-12,0.3607539292675948,2.7164829609066068e-55,0.6915316901486579
136.5,0.7102754592169668,0.7097705090269447,-0.005252957895459209,0.3685720354107398,2.3479307700056892e-11,0.3464514314881848,5.968125366804409e-54,0.7150234669224039
137.0,0.735360419562576,0.734855469372554,-0.005112688441369695,0.40740874595264936,9.099123997141205e-11,0.33255941177028303,1.2323324671244357e-52,0.7399681578139237
137.5,0.7629242269645515,0.7624192767745295,-0.0034788495353872406,0.4468196087304673,3.349769421357064e-10,0.31907851724447245,2.3941817745971738e-51,0.7658981263099167
138.0,0.7916490997186064,0.7911441495285844,-0.0011575629771419793,0.4862935323562633,1.1726511179412745e-09,0.3060081789768119,4.381231997375248e-50,0.7923017125057263
138.2,0.8022364016375018,0.8017314514474797,-0.0011433460998078182,0.5019801382228808,1.908997915131086e-09,0.3008946574154088,1.3784730965134015e-49,0.8028747975472875
138.4,0.8135524300510506,0.8130474798610285,-0.0003536630635946336,0.5175547276936251,3.083471380343522e-09,0.2958464121475267,4.296797803630724e-49,0.8134011429246232
138.6,0.8250584884175192,0.8245535382274971,0.0007088809403861251,0.5329813888976996,4.941957608358223e-09,0.29086326344745367,1.3269818622192653e-48,0.823844657287111
138.8,0.8354425971803072,0.8349376469902852,0.00076855926911501,0.5482240723915386,7.859760320808417e-09,0.2859450074698713,4.060571278475408e-48,0.8341690877211702
139.0,0.8462740893954404,0.8457691392054183,0.0014309650028960785,0.5632467446109541,1.2405010255084772e-08,0.28109141718655783,1.2312316720191983e-47,0.8443381742025222
139.2,0.8570216218789598,0.8565166716889377,0.002200866606644647,0.5780135423452066,1.9430707585331593e-08,0.27630224330637887,3.6995686174779123e-47,0.8543158050822931
139.4,0.8667475143712883,0.8662425641812662,0.0021763915595941485,0.5924889272361497,3.0207144691832715e-08,0.2715772151783777,1.1016636418758539e-46,0.8640661726216721
139.6,0.876895767377288,0.876390817187266,0.002836889590701608,0.6066378393080539,4.661074014135868e-08,0.2669160416777703,3.2513318569552738e-46,0.8735539275965644
139.8,0.8855084215411203,0.8850034713510982,0.002259139340887617,0.6204258485445991,7.139093420098836e-08,0.26231841207467727,9.510764862584501e-46,0.8827443320102106
140.0,0.8950879102150127,0.8945829600249906,0.0029795510467537367,0.6338193035486626,1.0854407964055059e-07,0.2577839968854947,2.7576474511593847e-45,0.8916034089782369
140.2,0.9029652689482045,0.9024603187581824,0.002362229870771837,0.6467854763480582,1.638325849090908e-07,0.25331244870676745,7.926076680762589e-45,0.9000980888874106
140.4,0.91052217177112,0.910017221581098,0.0018208706050140133,0.6592927024452216,2.454993485563642e-07,0.24890340303151381,2.2584000875780684e-44,0.908196350976084
140.6,0.917071510467104,0.9165665602770819,0.0006992007357345953,0.6713105152511911,3.65242214005376e-07,0.2445564790479422,6.37959672358879e-44,0.9158673595413473
140.8,0.9234092374569104,0.9229042872668883,-0.00017730677809113526,0.6828097740932292,5.395312349674476e-07,0.24027128042051532,1.7867415516385812e-43,0.9230815940449795
141.0,0.9293523250330593,0.9288473748430373,-0.0009635976241882949,0.693762785040425,7.913734204533627e-07,0.2360473960533801,4.961724429818124e-43,0.9298109724672255
141.2,0.9340859111337635,0.9335809609437414,-0.002448006400496916,0.7041434138523781,1.1526557152735063e-06,0.23188440083614492,1.3662555946129586e-42,0.9360289673442383
141.4,0.9391298375697316,0.9386248873797095,-0.0030858266412459034,0.7139271904213407,1.667227549740233e-06,0.2277818563720649,3.730658441354122e-42,0.9417107140209554
141.6,0.9437814701220941,0.9432765199320721,-0.00355659082391957,0.7230914041478562,2.394919469421883e-06,0.22373931168866598,1.0102267336505833e-41,0.9468331107559916
141.8,0.9478173344470237,0.9473123842570016,-0.004062526170653946,0.7316151897627885,3.4167339870125598e-06,0.21975630393088005,2.713047917160801e-41,0.9513749104276555
142.0,0.9511050331588675,0.9506000829688455,-0.004716720740499225,0.7394796031841694,4.84148839311932e-06,0.2158323590367822,7.226475226638835e-41,0.9553168037093447
142.2,0.9543160255746375,0.9538110753846154,-0.004830418322015584,0.746667687074727,6.814235884206453e-06,0.21196699239601977,1.909198253317432e-40,0.958641493706631
142.4,0.957037604306321,0.956532654116299,-0.0048011080587112565,0.7531645258444252,9.526839525567247e-06,0.20815970949105947,5.003291517241147e-40,0.9613337621750102
142.6,0.9601725274796172,0.9596675772895952,-0.0037129502741416465,0.758957289921241,1.3231121122015649e-05,0.20441000652137373,1.3006650637280038e-39,0.9633805275637368
142.8,0.9614293635770211,0.9609244133869991,-0.003846481866739526,0.7640352691919019,1.8255051130509878e-05,0.20071737101070625,3.354319724319089e-39,0.9647708952537386
143.0,0.9630536183109752,0.9625486681209532,-0.002947532350951576,0.7683898955917073,2.502248261556427e-05,0.19708128239758177,8.582167471945866e-39,0.9654962004719048
143.2,0.9632114593080064,0.9627065091179844,-0.0028435353469016267,0.7720147548983021,3.4076957374901616e-05,0.19350121260920902,2.1785478724322484e-38,0.965550044464886
143.4,0.9630060263910972,0.9625010762010752,-0.0024272483958190927,0.7749055878575412,4.611012038121354e-05,0.18997662661897183,5.487047018954147e-38,0.9649283245968943
143.6,0.9626194926492954,0.9621145424592733,-0.0015147166319062766,0.7770602808400069,6.199526349342524e-05,0.18650698298767932,1.3713091651616725e-37,0.9636292590911796
143.8,0.9613898095739392,0.9608848593839171,-0.0007685477727810142,0.7784788462936082,8.282647431854466e-05,0.18309173438877133,3.4007968203172103e-37,0.9616534071566981
144.0,0.9592383099008807,0.9587333597108586,-0.0002703255116263126,0.7791633933206076,0.00010996378418014139,0.1797303281176972,8.369469060685467e-37,0.9590036852224849
144.2,0.9563204341433263,0.9558154839533043,0.00013010401821400563,0.7791180887659754,0.00014508458345807476,0.17642220658565677,2.0441378006375887e-36,0.9556853799350903
144.4,0.952025068773,0.9515201185829779,-0.00018603986940235462,0.7783491092577236,0.0001902413967151262,0.17316680779794164,4.9549629733259634e-36,0.9517061584523803
144.6,0.9472248478568572,0.9467198976668352,-0.00035617871755688757,0.7768645846885882,0.00024792587871440926,0.1699635658170895,1.1920964840773874e-35,0.9470760763843921
144.8,0.9427493925969171,0.9422444424068951,0.0004368589219094776,0.774674533671828,0.00032113860207514565,0.1668119112110824,2.846726474380945e-35,0.9418075834849856
145.0,0.9365902030951347,0.9360852529051127,0.0001697260197031092,0.7717907915418207,0.0004134638567512108,0.16371127148683765,6.747856348917526e-35,0.9359155268854096
145.2,0.9310099989496323,0.9305050487596103,0.0010878974752732695,0.7682269315024131,0.0005291482727134051,0.16066107150921052,1.5877931145797927e-34,0.929417151284337
145.4,0.9242155922791256,0.9237106420891036,0.0013785470147728018,0.7639981795526196,0.0006731816159392778,0.1576607339057719,3.708959304587339e-34,0.9223320950743308
145.6,0.9167051900336916,0.9162002398436695,0.0015178589416720012,0.7591213238401714,0.0008513776042228002,0.15470967945760325,8.601262279442799e-34,0.9146823809019975
145.8,0.9094636792895904,0.9089587290995683,0.002466330456131538,0.7536146191087003,0.0010704520583828688,0.15180732747635362,1.980368520978055e-33,0.9064923986434368
146.0,0.9002756913072754,0.8997707411172533,0.0019818628691450346,0.747497686914112,0.001338095166170896,0.14895309616782543,4.527152285282528e-33,0.8977888782481083
146.2,0.8914688609921789,0.8909639108021569,0.002363061414301315,0.7407914122900199,0.0016630341154983026,0.14614640298233736,1.0275923392841897e-32,0.8886008493878556
146.4,0.8825194581892474,0.8820145079992253,0.0030549236258632373,0.7335178375412575,0.0020550818799856987,0.14338666495211883,2.3160850986915386e-32,0.8789595843733621
146.6,0.8721065363205861,0.871601586130564,0.0027030657293923843,0.725700053838705,0.002525167546452583,0.14067329901601405,5.18378689473179e-32,0.8688985204011717
146.8,0.8610543866644541,0.860549436474432,0.0020962795681807034,0.7173620912780073,0.0030853432965147407,0.13800572233172928,1.1521781898556737e-31,0.8584531569062513
147.0,0.8505201431871043,0.8500151929970823,0.0023542693417245575,0.7085288080499527,0.0037487630294919506,0.13538335257591314,2.5432719144788606e-31,0.8476609236553577
147.2,0.8384181576012992,0.8379132074112772,0.001352192151009901,0.6992257793510764,0.004529627676882692,0.13280560823230816,5.575542981646629e-31,0.8365610152602673
147.4,0.8266872330600232,0.8261822828700012,0.0009880948195062356,0.689479186640375,0.005443092541867788,0.1302719088682521,1.2140126269776895e-30,0.8251941880504949
147.6,0.814124210580867,0.813619260390845,1.674464223100358e-05,0.6793157078217646,0.0065051325270642935,0.127781675399785,2.6255553754247884e-30,0.813602515748614
147.8,0.8019296957672718,0.8014247455772497,-0.0004043555792071496,0.6687624089026991,0.007732361908142121,0.12533433034561564,5.64028733723148e-30,0.8018291011564569
148.0,0.7884504894394747,0.7879455392494527,-0.00197220284572297,0.657846637647614,0.009141806377337533,0.12292929807022412,1.2036031520849664e-29,0.7899177420951756
148.2,0.7765992748932928,0.7760943247032708,-0.0018182264377309965,0.6465959197106529,0.010750626414008858,0.12056600501634011,2.551451192481195e-29,0.7779125511410018
148.4,0.7651342082795172,0.7646292580894951,-0.0012282721532284047,0.6350378576963203,0.012575792619330797,0.1182438799270724,5.373196770855124e-29,0.7658575302427235
148.6,0.7537940038151448,0.7532890536251228,-0.0005070494358445643,0.6232000335591759,0.014633715443856317,0.11596235405793517,1.1241888612686998e-28,0.7537961030609673
148.8,0.7429888465283971,0.7424838963383751,0.0007132865550609768,0.6111099147151596,0.016939833689131073,0.1137208613790234,2.3368252508022466e-28,0.7417706097833141
149.0,0.731907487846803,0.731402537656781,0.0015807664791366305,0.5987947641979492,0.019508168212093394,0.11151883876760171,4.826283717399625e-28,0.7298217711776444
149.2,0.7212610696165509,0.7207561194265288,0.002767988756490425,0.5862815551539103,0.022350849324786422,0.10935572619134172,9.904172487007711e-28,0.7179881306700384
149.4,0.710620903339823,0.7101159531498009,0.003810467965310149,0.5735968899296052,0.025477628372418768,0.10723096688246676,2.0195807105669128e-27,0.7063054851844908
149.6,0.6999315065487287,0.6994265563587067,0.004620239095613932,0.5607669239662415,0.028895385793806183,0.10514400750304492,4.092236266602434e-27,0.6948063172630927
149.8,0.6893101150105558,0.6888051648205338,0.005285922321547121,0.547817294676483,0.0326076495208342,0.10309429830166947,8.240153582029116e-27,0.6835192424989867
150.0,0.6785961742993856,0.6780912241093635,0.005622736645141013,0.5347730554409749,0.036614138761475616,0.10108129326177204,1.6489350371168683e-26,0.6724684874642225
150.5,0.6522786161996177,0.6517736660095956,0.005784178293101738,0.5019069841577346,0.04787669010167597,0.09620581345708337,9.091887061829953e-26,0.6459894877164939
151.0,0.626320327305516,0.625815377115494,0.004569311487547578,0.46896148210993877,0.060736585167641764,0.09154799835036581,4.826002405914183e-25,0.6212460656279464
151.5,0.6001290696406412,0.5996241194506191,0.0014620948118467814,0.43626610200355137,0.07479626565778727,0.08709965697743367,2.467641835925288e-24,0.5981620246387723
152.0,0.5757812249317419,0.5752762747417198,-0.0011584097966681473,0.4041154663695178,0.08946644196787717,0.08285277620099298,1.216216009965254e-23,0.576434684538388
152.5,0.5529666631600858,0.5524617129700637,-0.0031051505138151025,0.3727672431990228,0.10400009127095425,0.07879952901390176,5.781508505697004e-23,0.5555668634838788
153.0,0.5314676353740693,0.5309626851840472,-0.003965129371189646,0.3424412478112631,0.1175542853810302,0.07493228136294353,2.6523839924399133e-22,0.5349278145552369
153.5,0.5098145373198009,0.5093095871297788,-0.004526520863990413,0.3133195543643709,0.12927295601611735,0.07124359761328092,1.175044942850717e-21,0.5138361079937692
154.0,0.4868751425177743,0.48637019232775225,-0.005282516674333659,0.2855474826199756,0.1383789816141865,0.0677262447679238,5.029777124510685e-21,0.4916527090020859
154.5,0.46315352056313014,0.4626485703731081,-0.005221350334625063,0.25923531548466666,0.14426140967240206,0.06437319555066442,2.0814591037814154e-20,0.46786992070773314
155.0,0.43838677624833405,0.437881826058312,-0.004300336127379789,0.2344605997003633,0.14654393203025234,0.061177630455076105,8.33213024074499e-20,0.4421821621856918
155.5,0.41260320623818086,0.4120982560481588,-0.002429469206222612,0.2112708848660672,0.14512390153196528,0.05813293885634895,3.2281443282421116e-19,0.4145277252543814
156.0,0.38480320348751135,0.3842982532974893,-0.0007977130526260479,0.18968676365949833,0.14017648341360944,0.05523271927700759,1.2111387672122139e-18,0.38509596635011534
156.5,0.35617230315827986,0.3556673529682578,0.0013667571857771676,0.16970508756522273,0.13212472932531968,0.05247077889193818,4.402607927650155e-18,0.35430059578248063
157.0,0.32769750579639406,0.327192555606372,0.004467127988821817,0.15130224650891563,0.12158204875595484,0.04984113235267971,1.551415607209975e-17,0.3227254276175502
157.5,0.2982720747182075,0.29776712452818543,0.006714149329935359,0.13443741652389338,0.1092775586687376,0.04733800000561905,5.302383587415193e-17,0.2910529751982501
