wavelength,absorbance,absorbance_bk,residual_3gauss,Gauss_1,Gauss_2,Gauss_3,Gauss_4,Gauss_fit
117.0,0.7367381939503416,0.7397943438181975,-0.00640901163446872,1.1774471996322497e-06,1.2364831320174506e-55,0.7462021780054666,7.240714208909464e-73,0.7462033554526663
117.5,0.7319715530187954,0.7350277028866513,-0.005079278162728018,2.1181128458631816e-06,8.759789039699256e-54,0.7401048629365334,2.5961249357965878e-71,0.7401069810493793
118.0,0.7246800023116243,0.7277361521794803,-0.0053532261640449885,3.7413804232376128e-06,5.5622219945670046e-52,0.733085636963102,8.679561512081812e-70,0.7330893783435253
118.5,0.7177451081416466,0.7208012580095026,-0.004401876900906876,6.491764156405259e-06,3.172895987703633e-50,0.725196643146253,2.709562843459911e-68,0.7252031349104094
119.0,0.7173123852589576,0.7203685351268135,0.0038660080318713153,1.1069054616303166e-05,1.6296571099020507e-48,0.7164914580403259,7.908924249548438e-67,0.7165025270949422
119.5,0.7075444916105801,0.710600641478436,0.0035574060294111254,1.855410849086925e-05,7.553123703517622e-47,0.7070246813405341,2.161356855275083e-65,0.7070432354490249
120.0,0.6981642945403338,0.7012204444081898,0.004338312273552525,3.0585271988223616e-05,3.1657867477069993e-45,0.696851546862649,5.537165765611409e-64,0.6968821321346372
120.5,0.6890503541959524,0.6921065040638084,0.006029346992349249,4.9600314114037474e-05,1.2024704199558802e-43,0.6860275567573451,1.3315239802400127e-62,0.6860771570714591
121.0,0.6778774669323213,0.6809336168001773,0.006246315652621237,7.916072546486857e-05,4.147597950595864e-42,0.6746081404220912,3.0091716985193424e-61,0.674687301147556
121.5,0.6641257759863568,0.6671819258542128,0.004409210230788219,0.00012437646219747776,1.3017261037379382e-40,0.6626483391612271,6.39890288323859e-60,0.6627727156234245
122.0,0.6509813685349145,0.6540375184027705,0.003642551961123397,0.0001924491787130809,3.724726874797281e-39,0.650202517262934,1.281849373984008e-58,0.6503949664416471
122.5,0.6372002121309005,0.6402563619987565,0.0026389120614735972,0.00029335012494962346,9.73537556817004e-38,0.6373240998123333,2.4218226754978948e-57,0.6376174499372829
123.0,0.6239410657855206,0.6269972156533765,0.002491233811480531,0.00044064459788689913,2.3286650370030395e-36,0.624065337244009,4.320274894558731e-56,0.624505981841896
123.5,0.6098186092115561,0.612874759079412,0.0017451951215686767,0.0006524676023124865,5.106830146550927e-35,0.6104770963555308,7.284891881811218e-55,0.6111295639578433
124.0,0.593551827730411,0.596607977598267,-0.0009533444706565364,0.0009526448130194219,1.0286363708259403e-33,0.5966086772559042,1.1623742168831077e-53,0.5975613220689235
124.5,0.5783722754703702,0.5814284253382261,-0.002451169082400284,0.001371938912040431,1.9063244652234907e-32,0.582507655508586,1.7568638506375598e-52,0.5838795944206264
125.0,0.5637835710601364,0.5668397209279924,-0.003329411746510247,0.001949384127541399,3.256098474900762e-31,0.5682197485469612,2.5179532008286046e-51,0.5701691326745026
125.5,0.5485307366404515,0.5515868865083075,-0.004935470773639539,0.0027336519927110706,5.1343869589209816e-30,0.553788705289236,3.4254131776074903e-50,0.556522357281947
126.0,0.5343046235172434,0.5373607733850994,-0.005679814504369718,0.0037843701313530144,7.48649174112927e-29,0.539256217758116,4.4275437918649045e-49,0.5430405878894691
126.5,0.5216716030076334,0.5247277528754893,-0.00510739545176786,0.005173294910916797,1.0110189011599808e-27,0.5246618534163404,5.44273134616467e-48,0.5298351483272572
127.0,0.5085403195754012,0.5115964694432572,-0.005431757576613849,0.006985220159836622,1.2665093869954564e-26,0.5100430068600345,6.369209680179504e-47,0.5170282270198711
127.5,0.49737473601770416,0.5004308858855601,-0.004322473774603153,0.009318490194317741,1.4739669765479028e-25,0.4954348694658454,7.101833151574445e-46,0.5047533596601632
128.0,0.4864121037915962,0.4894682536594522,-0.003687140505509834,0.012284978602416417,1.5960430961171509e-24,0.4808704155625456,7.552047205454209e-45,0.493155394164962
128.5,0.47717204787428347,0.48022819774213943,-0.0021616028379841112,0.016009396888943477,1.6103193423928543e-23,0.46638040369118006,7.665718793617062e-44,0.48238980058012354
129.0,0.4688717799376943,0.47192792980555026,-0.0006932727628750079,0.020627811040969654,1.5160342461563926e-22,0.4519933915274556,7.43381040607088e-43,0.47262120256842527
129.5,0.46199623488710656,0.4650523847549625,0.001031351250914636,0.026285270440011086,1.3336476298242079e-21,0.4377357630640368,6.893010624838124e-42,0.4640210335040479
130.0,0.45641832481617806,0.459474474684034,0.00271021555284523,0.03313249244475041,1.0977425206580708e-20,0.42363176668643837,6.116541855023091e-41,0.4567642591311888
130.5,0.45171674857309774,0.4547728984409537,0.0037477392641180884,0.04132159635436369,8.465770148877126e-20,0.4097035628224719,5.198230740106385e-40,0.4510251591768356
131.0,0.44855510231190127,0.4516112521797572,0.004639032220592643,0.05100094005929257,6.124995048002242e-19,0.395971279899872,4.234512227755694e-39,0.4469722199591646
131.5,0.4463101842210879,0.4493663340889439,0.004604078642639786,0.06230917803828497,4.162676713047035e-18,0.38245307740801915,3.3089321711469483e-38,0.4447622554463041
132.0,0.4468366046380088,0.44989275450586474,0.0053588135519423985,0.07536872602775534,2.6607844473418267e-17,0.369165214926167,2.4822201984893854e-37,0.44453394095392235
132.5,0.4488132796651508,0.45186942953300674,0.005468422914668147,0.09027888056762298,1.6015756866394123e-16,0.35612212605071547,1.788896224596163e-36,0.4464010066183386
133.0,0.452278793930405,0.45533494379826095,0.004889552202040237,0.10710889536953716,9.088773617572364e-16,0.34333649622668266,1.2394816295256164e-35,0.4504453915962207
133.5,0.4574436697336575,0.4604998196015135,0.0037891200861548957,0.125891355952909,4.868456511439378e-15,0.33081934356244475,8.262591422600101e-35,0.4567106995153586
134.0,0.46479945614342183,0.4678556060112778,0.002659289346778393,0.1466162148834571,2.4643521729979844e-14,0.31858010178101764,5.302960773245782e-34,0.4651963166644994
134.5,0.4738532145323013,0.47690936440015724,0.0010568108120540542,0.1692258490531449,1.1801205982865987e-13,0.3066267045348403,3.2790267433802556e-33,0.4758525535881032
135.0,0.48436179577760574,0.4874179456454617,-0.001159200879282396,0.19361147614084362,5.352275732551007e-13,0.29496567038336524,1.9547366212424127e-32,0.4885771465247441
135.5,0.4977576896118917,0.5008138394797477,-0.0023995681806201485,0.219611219854811,2.301469706221503e-12,0.2836021878032554,1.124176893850933e-31,0.5032134076603678
136.0,0.5129212384132861,0.515977388281142,-0.003572856192688656,0.24701004479544814,9.39254126610046e-12,0.27254019966899007,6.241151310171035e-31,0.5195502444738307
136.5,0.5304681370739811,0.5335242869418371,-0.0037998953456378493,0.2755416955441896,3.641822485830615e-11,0.2617824867068671,3.3469811261382026e-30,0.5373241822874749
137.0,0.5495733631134652,0.5526295129813211,-0.0035939127442566887,0.3048926761038728,1.3429183251427246e-10,0.25133074948741313,1.734880598961586e-29,0.5562234257255778
137.5,0.5709947267971892,0.5740508766650452,-0.0018430137523527401,0.33470820136618545,4.714154112961536e-10,0.24118568857979705,8.697161626833374e-29,0.5758938904173979
138.0,0.593067295509075,0.596123445376931,0.0001764125632770508,0.3645999486898967,1.57688684653596e-09,0.2313470825468704,4.219253862876077e-28,0.5959470328136539
138.2,0.5998432951299224,0.6028994449977784,-0.0010839467528662716,0.3764861541768672,2.5222224809758182e-09,0.22749723505155497,7.8640428739534615e-28,0.6039833917506446
138.4,0.6084909274532212,0.6115470773210772,-0.00044060830965797493,0.3882915274459767,4.004098256205245e-09,0.22369615418066013,1.4582523837964813e-27,0.6119876856307351
138.6,0.6175336848598004,0.6205898347276564,0.0006574558444616407,0.39998865565942515,6.309431087497407e-09,0.21994371691433845,2.690369816941425e-27,0.6199323788831947
138.8,0.6254710879747798,0.6285272378426358,0.0007374454604535119,0.41155000063105157,9.86882102844638e-09,0.2162397818823097,4.938550102314478e-27,0.6277897923821822
139.0,0.6340038030276833,0.6370599528955393,0.0015277305615133407,0.42294801694394,1.532340161009032e-08,0.21258419006668436,9.020087403904972e-27,0.635532222334026
139.2,0.6416507625962585,0.6447069124641145,0.0015748523556249339,0.4341552709957247,2.3620275927563828e-08,0.20897676549248892,1.6393108253615918e-26,0.6431320601084896
139.4,0.6493291929647846,0.6523853428326406,0.0018234305828994657,0.44514456019639975,3.6147598056061026e-08,0.20541731590574333,2.964602720313575e-26,0.6505619122497411
139.6,0.6567533310119009,0.6598094808797569,0.0020147609725842397,0.4558890315441052,5.492413614387611e-08,0.20190563343893128,5.335087749517836e-26,0.6577947199071726
139.8,0.6634658380251133,0.6665219878929692,0.0017181109545559847,0.46636229881166585,8.286301876924409e-08,0.19844149526372867,9.554360215001078e-26,0.6648038769384133
140.0,0.6710624648294052,0.6741186146972612,0.0025552687403015417,0.47653855759049507,1.2413555852279734e-07,0.19502466423090603,1.7027920967301459e-25,0.6715633459569597
140.2,0.6772880169090727,0.6803441667769287,0.002296395151891395,0.4863926974589139,1.846688307209119e-07,0.19165488949729262,3.020205426893279e-25,0.6780477716250373
140.4,0.6830155326470873,0.6860716825149432,0.0018390919866420052,0.49590041056820344,2.7282034376613797e-07,0.188331907139754,5.33139595262385e-25,0.6842325905283012
140.6,0.6885702978034042,0.6916264476712601,0.001532310658253544,0.5050382959719162,4.002849609694618e-07,0.18505544075612945,9.366765019087494e-25,0.6900941370130066
140.8,0.692986949395517,0.6960430992633729,0.0004333548453120395,0.5137839590614742,5.833035011235421e-07,0.18182520205308556,1.6379365203830506e-24,0.6956097444180609
141.0,0.6972970365530403,0.7003531864208963,-0.0004046547727754035,0.5221161055133782,8.442594015749082e-07,0.1786408914208919,2.850871656144617e-24,0.7007578411936717
141.2,0.7010679886847204,0.7041241385525764,-0.001393902912411038,0.5300146292002401,1.2137696514736833e-06,0.17550219849509582,4.939076085594941e-24,0.7055180414649874
141.4,0.7050928835891268,0.7081490334569828,-0.0017221962155036241,0.5374606935683878,1.7333989667995782e-06,0.17240880270513181,8.51756380625521e-24,0.7098712296724864
141.6,0.708401987118738,0.711458136986594,-0.0023415020139283538,0.5444368060388384,2.4591518016652424e-06,0.16936037380988234,1.4621797678209773e-23,0.7137996390005223
141.8,0.7117086039893917,0.7147647538572477,-0.0025221695330626126,0.5509268850450919,3.4659249829304305e-06,0.16635657242023552,2.4987096619641644e-23,0.7172869233903103
142.0,0.7141959190082505,0.7172520688761065,-0.0030661541465775155,0.5569163193800262,4.853133959282104e-06,0.1633970505086986,4.2508356968551726e-23,0.720318223022684
142.2,0.7169425961553579,0.7199987460232139,-0.0028814772244823983,0.5623920195845851,6.75175698169703e-06,0.16048145190612947,7.199296756523362e-23,0.7228802232476963
142.4,0.7190818578817894,0.7221380077496453,-0.002823199280971078,0.56734246117225,9.333072695612598e-06,0.15760941278567092,1.2138826249549618e-22,0.7249612070306164
142.6,0.720826110132311,0.723882260000167,-0.002668841074687678,0.5717577195449887,1.2819395892413709e-05,0.15478056213397362,2.0377349743257197e-22,0.7265511010748547
142.8,0.7219768636075374,0.7250330134753934,-0.002608502393562584,0.5756294965178396,1.749714131249542e-05,0.15199452220980386,3.4057793238999833e-22,0.727641515868956
143.0,0.7233866799586285,0.7264428298264844,-0.0017829501572932394,0.57895113842995,2.3732563672500788e-05,0.14925090899015517,5.667563850230379e-22,0.7282257799837777
143.2,0.7233860318275842,0.7264421816954402,-0.0018567873180914685,0.5817176458793096,3.1990530255122814e-05,0.14654933260396683,9.390758178420174e-22,0.7282989690135316
143.4,0.7235308325304112,0.7265869823982671,-0.0012709472080039141,0.5839256751759438,4.285667673611016e-05,0.14388939775359116,1.5493242381349052e-21,0.727857929606271
143.6,0.7231685200268461,0.726224669894702,-0.0006766291664406232,0.5855735316636705,5.706327334076233e-05,0.14127070412413137,2.5452731551255307e-21,0.7269012990611426
143.8,0.7222670487254229,0.7253231985932789,-0.00010632238321028886,0.5866611551130985,7.55190826008821e-05,0.13869284678078989,4.163799444608727e-21,0.7254295209764892
144.0,0.7206082089768707,0.7236643588447267,0.00021950143470816919,0.5871900974380582,9.934341757314917e-05,0.1361554165543873,6.782992432417526e-21,0.7234448574100185
144.2,0.7181895339740054,0.7212456838418614,0.0002942858866484821,0.5871634930337618,0.00012990450626426577,0.13365800041518688,1.1003774607836685e-20,0.7209513979552129
144.4,0.7152471078333528,0.7183032577012087,0.00034819165804789165,0.5865860220773415,0.0001688621306208331,0.1312001818351985,1.7777204367853386e-20,0.7179550660431608
144.6,0.7116823626490284,0.7147385125168844,0.0002748898737965355,0.5854638671698327,0.00021821433413928034,0.12878154113911588,2.86021825042184e-20,0.7144636226430878
144.8,0.7083662442230849,0.7114223940909409,0.0009357267343532705,0.5838046637329138,0.0002803477796162721,0.12640165584405746,4.583119888649548e-20,0.7104866673565876
145.0,0.7033064885362043,0.7063626384040602,0.0003270017238888867,0.5816174446036534,0.0003580910882273461,0.1240601009882906,7.31411710716164e-20,0.7060356366801713
145.2,0.6989263636086169,0.7019825134764729,0.0008587145257464845,0.5789125792960335,0.0004547702055923572,0.12175644944910054,1.162554881204425e-19,0.7011237989507264
145.4,0.6940204607791324,0.6970766106469883,0.0013103654529967868,0.5757017084190951,0.0005742645248988832,0.11949027224999764,1.8404668626560332e-19,0.6957662451939916
145.6,0.6880926590322072,0.6911488089000631,0.0011689341250005203,0.5719976737581333,0.000721062159490164,0.11726113885743916,2.9021346125724353e-19,0.6899798747750626
145.8,0.6830472539948267,0.6861034038626826,0.0023200294493394003,0.5678144445375125,0.0009003124085838717,0.11506861746724681,4.558207070355465e-19,0.6837833744133432
146.0,0.6750765931785072,0.6781327430463632,0.0009355542599305267,0.5631670403914858,0.001117873114030353,0.11291227528091648,7.131310371972536e-19,0.6771971887864326
146.2,0.6685438219605141,0.6715999718283701,0.0013564912032439924,0.5580714515729143,0.0013803502802099581,0.11079167877200174,1.111361042605265e-18,0.6702434806251261
146.4,0.6616361072445461,0.6646922571124021,0.001746179197608888,0.5525445569292254,0.0016951270428074922,0.10870639394276028,1.7252943669849714e-18,0.6629460779147932
146.6,0.6540845620758977,0.6571407119437537,0.0018103063552561416,0.5466040401705049,0.0020703788467248997,0.10665598657126774,2.6681179024770053e-18,0.6553304055884975
146.8,0.6452227896446281,0.648278939512484,0.0008555405656206494,0.5402683049463382,0.0025150715513539844,0.10464002244917127,4.110475750325131e-18,0.6474233989468634
147.0,0.6374573091144631,0.640513458982319,0.001260062990166344,0.5335563892364553,0.0030389391453989893,0.10265806761029836,6.308641100307443e-18,0.6392533959921527
147.2,0.6278677611713838,0.6309239110392397,7.390509890359276e-05,0.5264878795452242,0.003652437844816021,0.10070968855029577,9.646005771926188e-18,0.6308500059403361
147.4,0.619088474389374,0.6221446242572299,-9.932713751581446e-05,0.5190828253722746,0.0043666735849653675,0.09879445243750581,1.469394473894697e-17,0.6222439513947458
147.6,0.60959421814818,0.612650368016036,-0.0008165140266596094,0.5113616544109714,0.005193300316454777,0.09691192731526937,2.230075734450811e-17,0.6134668820426956
147.8,0.6003211028105112,0.6033772526783672,-0.0011739056035210416,0.5033450889035491,0.006144387082495013,0.09506168229584414,3.372113619475337e-17,0.6045511582818882
148.0,0.5902844152900606,0.5933405651579166,-0.002189038741119642,0.49505406355682624,0.007232252596067408,0.09324328774614254,5.0803909226498265e-17,0.5955296038990362
148.2,0.581289977840908,0.5843461277087639,-0.0020891000942109272,0.4865096453955857,0.008469266941920125,0.09145631546546894,7.626324718775754e-17,0.5864352278029749
148.4,0.5723149126782052,0.5753710625460612,-0.001929853298453743,0.4777329559026231,0.009867621086433104,0.08970033885545863,1.1406896104265867e-16,0.5773009158445149
148.6,0.5637820011989128,0.5668381510667687,-0.0013209438441066368,0.46874509576502893,0.011439066063442192,0.08797493308240405,1.7000607080526632e-16,0.5681590949108754
148.8,0.5552458314478964,0.5583019813157524,-0.0007393914148992042,0.4595670725160589,0.013194624982439729,0.08627967523215269,2.524740599611437e-16,0.5590413727306516
149.0,0.5470017455441435,0.5500578954119995,7.973728840127148e-05,0.4502197313312214,0.015144282334599916,0.08461414445777654,3.7362424076316566e-16,0.5499781581235982
149.2,0.5386930253224294,0.5417491751902853,0.0007509074625082768,0.4407236892059794,0.017296656401611335,0.08297792212018583,5.509722846343885e-16,0.540998267727777
149.4,0.530819049698416,0.5338751995662719,0.0017466730869383218,0.43109927271143494,0.019658661846016254,0.08137059192188166,8.096760368167969e-16,0.5321285264793336
149.6,0.5227124674829393,0.5257686173507953,0.002375247103668099,0.4213664594933564,0.022235170719743687,0.0797917400340259,1.1857413486577287e-15,0.5233933702471272
149.8,0.5148520182683692,0.5179081681362252,0.0030937081611374095,0.411544823649399,0.025028681108679625,0.07824095521700743,1.7305176446341521e-15,0.5148144599750878
150.0,0.5066889830718705,0.5097451329397265,0.003334815539160263,0.40165348508957405,0.028039003376302173,0.07671782893468745,2.516979353883639e-15,0.5064103174005662
150.5,0.48760582191126495,0.4906619717791209,0.004407949402689182,0.3767410310249677,0.03648462740649342,0.07302836394496427,6.327308802521827e-15,0.4862540223764317
151.0,0.46809417249095353,0.4711503223588095,0.003748596794613479,0.3517831317000738,0.04611561471741312,0.06950297914669351,1.5577994897715014e-14,0.467401725564196
151.5,0.4485036400348152,0.45155978990267115,0.001741233782610374,0.32703057461075613,0.05665244217832973,0.06613553933093735,3.757594570790907e-14,0.4498185561200608
152.0,0.43025187438827406,0.43330802425613,1.0438087755804126e-06,0.3027071659530621,0.06767977488021476,0.06292003961398879,8.883088065325224e-14,0.43330698044735444
152.5,0.41311797574652626,0.4161741256143822,-0.0013532772911670765,0.27900821579266033,0.07866857519503212,0.059850611917650946,2.0588313574102713e-13,0.4175274029055493
153.0,0.39715403539559274,0.4002101852634487,-0.0018283988247896898,0.2560998936977072,0.08901716006229664,0.056921530327766603,4.679771997283004e-13,0.4020385840882384
153.5,0.381039291557624,0.38409544142547997,-0.0022580930865377935,0.2341193629061049,0.0981069561837486,0.05412721542112067,1.0435599951101711e-12,0.38635353451201776
154.0,0.3640983919063798,0.3671545417742358,-0.0028488507518466544,0.21317558746980209,0.10536556740745848,0.051462237646538206,2.28369471151104e-12,0.37000339252608244
154.5,0.3464191726325823,0.3494753225004383,-0.0031246233396138856,0.1933506992424733,0.1103279267510155,0.0489213198416574,4.905949855979872e-12,0.35259994584005216
155.0,0.3280339959106168,0.3310901457784728,-0.0027972462015343758,0.17470180942743824,0.11268624357969832,0.04649933896252141,1.0349196647869593e-11,0.33388739198000716
155.5,0.30829085696923014,0.3113470068370861,-0.002428703234529761,0.15726315190150816,0.11232123104984763,0.04419132709881532,2.1444713287720106e-11,0.31377571007161587
156.0,0.2878624288302674,0.2909185786981234,-0.0014326644124555976,0.14104845181359865,0.10931031941000115,0.04199247184331821,4.366094390379795e-11,0.292351243110579
156.5,0.26688784512316666,0.2699439949910226,7.995594555876284e-05,0.12605342213416545,0.10391250074396764,0.039898116079962784,8.736794553136238e-11,0.26986403904546385
157.0,0.24563937560069304,0.24869552546854898,0.002000216195746779,0.11225830203649312,0.09653324981361333,0.03790375725081716,1.7187860142653583e-10,0.2466953092728022
