wavelength,absorbance,absorbance_bk,residual_3gauss
117.0,0.21857955830479583,0.2184108788066963,-0.00401158782632316
117.5,0.21694866833354504,0.2167799888354455,-0.0035997623623171826
118.0,0.2164110618879252,0.21624238238982565,-0.0018263917783846728
118.5,0.21470901263730663,0.2145403331392071,-0.0009655382542039237
119.0,0.21209697077971548,0.21192829128161594,-0.0007794961239720455
119.5,0.21120259469593103,0.2110339151978315,0.0013423307563806275
120.0,0.2083430832284121,0.20817440373031257,0.001699831636309851
120.5,0.2061648368067679,0.20599615730866835,0.002921894710838424
121.0,0.20245425185255017,0.20228557235445063,0.0027772148986295597
121.5,0.19972825816369288,0.19955957866559335,0.0037648069654126204
122.0,0.19508338249993631,0.19491470300183678,0.00296300060694768
122.5,0.1900534175831688,0.18988473808506925,0.0018869902407011585
123.0,0.1863979144645444,0.18622923496644486,0.0022771518029683357
123.5,0.18157559186249195,0.1814069123643924,0.0015722161929224432
124.0,0.17661867717002716,0.17644999767192762,0.0007833128677240953
124.5,0.1713111193116081,0.17114243981350857,-0.00032817344555360894
125.0,0.16665589244123108,0.16648721294313154,-0.0007837059135271385
125.5,0.16155286699473737,0.16138418749663783,-0.0017101677205578203
126.0,0.15708251692127875,0.15691383742317921,-0.0020566126451267985
126.5,0.15305635303648055,0.152887673538381,-0.002044274731014206
127.0,0.14891847789190507,0.14874979839380553,-0.0022654046872151445
127.5,0.1457758502610968,0.14560717076299726,-0.0016533013451406064
128.0,0.14193277077354272,0.14176409127544318,-0.0019479783114606797
128.5,0.13911481252949393,0.1389461330313944,-0.0014721916426158332
129.0,0.136557834927227,0.13638915542912747,-0.0010421415394397393
129.5,0.13453783512324125,0.1343691556251417,-0.0004370506743205105
130.0,0.13237717456510814,0.1322084950670086,-0.00039204913817861287
130.5,0.13154478999366837,0.13137611049556883,0.0005032609996251936
131.0,0.1305575248275961,0.13038884532949657,0.0007076959756160961
131.5,0.12978648633451867,0.12961780683641913,0.0005367171675955129
132.0,0.13076963013069867,0.13060095063259913,0.0014771482684120818
132.5,0.13147440021586196,0.13130572071776242,0.0014521390862815564
133.0,0.132851570676965,0.13268289117886545,0.0013774278467440226
133.5,0.13480863867330123,0.1346399591752017,0.0011371388175473174
134.0,0.13762378275455078,0.13745510325645124,0.0010000036453417793
134.5,0.1407799799952097,0.14061130049711015,0.0004554685487580534
135.0,0.14446062805969487,0.14429194856159533,-0.0002890952875568842
135.5,0.14918410579298505,0.1490154262948855,-0.0006727620404313184
136.0,0.15486454290182086,0.15469586340372132,-0.0007198295604092242
136.5,0.16073761993745603,0.1605689404393565,-0.001114255099710526
137.0,0.1678225766878066,0.16765389718970705,-0.0007386078825364628
137.5,0.17540675180354268,0.17523807230544314,-0.00019121629551482888
138.0,0.1831394805261954,0.18297080102809585,0.0003053548684479601
138.2,0.18560642240772285,0.1854377429096233,-0.00014716712412612964
138.4,0.1885277769523688,0.18835909745426926,-0.00014577271927146418
138.6,0.19177168488979107,0.19160300539169153,0.0001870929096655094
138.8,0.19484442767849583,0.1946757481803963,0.00036723413516481784
139.0,0.19785344300832527,0.19768476351022574,0.000511679199180326
139.2,0.2005609129409835,0.20039223344288395,0.0003922264099561479
139.4,0.20340438629232369,0.20323570679422415,0.00045602408474140765
139.6,0.20652935667721328,0.20636067717911374,0.0008581059295875437
139.8,0.20840700795143713,0.2082383284533376,7.909385940704783e-05
140.0,0.21198310066000983,0.2118144211619103,0.001074042131672448
140.2,0.21460274219574127,0.21443406269764173,0.0011971657537249714
140.4,0.21671134992552513,0.2165426704274256,0.0009027626663833666
140.6,0.2188839818350412,0.21871530233694167,0.0007745044857741246
140.8,0.2206511129507943,0.22048243345269475,0.00035117427663111656
141.0,0.22254232723505876,0.22237364773695922,0.00017032124732102583
141.2,0.2235215194558582,0.22335283995775865,-0.0007965729588018944
141.4,0.2259440997012436,0.22577542020314406,-0.00018692355833824226
141.6,0.22720096577079124,0.2270322862726917,-0.0006031021542745874
141.8,0.22865187588913888,0.22848319639103934,-0.0006790939546835184
142.0,0.22965483892357513,0.2294861594254756,-0.0010511354354632019
142.2,0.2310213006384697,0.23085262114037017,-0.0009025538762607033
142.4,0.2321304835702162,0.23196180407211667,-0.0008494511750797851
142.6,0.23281782040070928,0.23264914090260974,-0.0010522920781241563
142.8,0.23342327986436995,0.2332546003662704,-0.0011675978268973208
143.0,0.2343653994128148,0.23419671991471527,-0.0007739310538857624
143.2,0.2346195358495481,0.23445085635144855,-0.0008936607829760912
143.4,0.23476271811068325,0.2345940386125837,-0.0009481234337112288
143.6,0.23500191809669763,0.2348332385985981,-0.000729363998390048
143.8,0.2353161282347297,0.23514744873663015,-0.0002580687766180756
144.0,0.23497727882427388,0.23480859932617434,-0.0002626566589956081
144.2,0.23469583104734237,0.23452715154924283,-3.369309350942373e-05
144.4,0.23405668440339503,0.2338880049052955,1.2012051566451243e-05
144.6,0.2328906056633689,0.23272192616526935,-0.0002971701005048677
144.8,0.2327147701108037,0.23254609061270415,0.0005528521573388567
145.0,0.2310373631217537,0.23086868362365418,6.64931474068653e-05
145.2,0.23037734350517633,0.2302086640070768,0.0007582559825973223
145.4,0.22867137409168112,0.22850269459358158,0.0005596687364570196
145.6,0.22679276732945056,0.22662408783135102,0.0003382388103271572
145.8,0.22550278341437752,0.22533410391627798,0.0008487635455023401
146.0,0.22271072989237267,0.22254205039427313,-6.553391257768659e-06
146.2,0.22112677751831197,0.22095809802021243,0.0004747355827261768
146.4,0.21940790121910564,0.2192392217210061,0.0009412902947561752
146.6,0.2167502375612143,0.21658155806311477,0.0005803739852384693
146.8,0.21373203793095652,0.21356335843285698,-3.91527874569475e-05
147.0,0.21207815783713688,0.21190947833903734,0.0007977055460510196
147.2,0.20871594323001685,0.20854726373191732,8.022501089416378e-06
147.4,0.20629838492734476,0.20612970542924522,0.00023416924411290285
147.6,0.20301344104993743,0.2028447615518379,-0.00034678875430640965
147.8,0.200915400825636,0.20074672132753646,0.0003083553124811067
148.0,0.1968791574942101,0.19671047799611055,-0.0009366854375397471
148.2,0.19419530344231248,0.19402662394421294,-0.0008024959696372458
148.4,0.19174146285086643,0.1915727833527669,-0.00042251855778144276
148.6,0.18927959758133273,0.1891109180832332,-4.563217765035654e-05
148.8,0.18632006880234567,0.18615138930424613,-0.0001719709570205119
149.0,0.1835754631280228,0.18340678362992327,-9.897462833199921e-05
149.2,0.1806446122611504,0.18047593276305085,-0.00023724401459759847
149.4,0.1780194432511115,0.17785076375301195,-0.00010356674139827549
149.6,0.17588951830769295,0.1757208388095934,0.00048374322933550373
149.8,0.17343691159940725,0.1732682321013077,0.0006998369585755893
150.0,0.17059805478137607,0.17042937528327654,0.00047528170615573906
150.5,0.1658294377537174,0.16566075825561785,0.001976549758187701
151.0,0.15957416591138787,0.15940548641328833,0.0015862883862717003
151.5,0.15316624089439532,0.15299756139629578,0.0006516690899027455
152.0,0.14783024707855366,0.14766156758045412,0.00046149951858101557
152.5,0.14218445807445523,0.1420157785763557,-0.0002574759891174616
153.0,0.13728376367287745,0.1371150841747779,-0.00031000628335339786
153.5,0.1319799936340812,0.13181131413598166,-0.0006886490423704816
154.0,0.1263183853037853,0.12614970580568577,-0.0011961818039086802
154.5,0.12035849332306392,0.1201898138249644,-0.0016433152495961278
155.0,0.11503153139700432,0.1148628518989048,-0.001007201627240037
155.5,0.10873869565850056,0.10857001616040103,-0.0008440908024163613
156.0,0.10218285510852251,0.10201417561042299,-0.0004624269710252066
156.5,0.09502593428142872,0.0948572547833292,-0.0002637146065318646
157.0,0.08838113475004612,0.0882124552519466,0.0007573583586934218
157.5,0.08063042559357307,0.08046174609547355,0.0008425304682835033
158.0,0.07348091174051181,0.07331223224241229,0.0015409798275253656
158.5,0.06600468699857752,0.065836007500478,0.0017642712085211981
159.0,0.058638930926040986,0.05847025142794146,0.0018001240197388427
159.5,0.051412238947600254,0.05124355944950073,0.0015495791459636948
160.0,0.04439489554415129,0.044226216046051765,0.0009844627202652903
160.5,0.03735133885041455,0.037182659352315024,-0.00019680182842717747
161.0,0.031616877794685534,0.03144819829658601,-0.0006926423644610241
161.5,0.026918269247384,0.026749589749284472,-0.0007807371301231242
162.0,0.022325032562667806,0.022156353064568278,-0.00137159073731654
162.5,0.018126996007020755,0.017958316508921227,-0.0021368704370074466
163.0,0.014978748507177795,0.014810069009078268,-0.002371011721296539
163.5,0.01251759972209148,0.012348920223991953,-0.0023788587553573593
164.0,0.010304219586496428,0.010135540088396901,-0.0025397552373538097
164.5,0.008948402205476047,0.00877972270737652,-0.0021854375535284663
165.0,0.0072158853856274015,0.007047205887527875,-0.002495770149974699
165.5,0.006150817960027092,0.005982138461927565,-0.0023778276164513595
166.0,0.005337819113611576,0.005169139615512049,-0.002204550605652605
166.5,0.004317581634005722,0.0041489021359061955,-0.002399225334319374
167.0,0.004178632308914033,0.0040099528108145065,-0.0018433719353105494
167.5,0.0036690785022980175,0.003500399004198491,-0.0017643863582149132
168.0,0.003179614728006276,0.003010935229906749,-0.0017518001761544777
168.5,0.0025169657734100946,0.002348286275310568,-0.001983081951744068
169.0,0.002544140860602976,0.0023754613625034493,-0.0015826710778192097
169.5,0.0025666671430063155,0.002397987644906789,-0.0012351125864752564
170.0,0.002076240196894236,0.0019075606987947094,-0.0014408706499287537
170.5,0.0019589829954713123,0.0017903034973717855,-0.0013076301216641908
171.0,0.0019464620943099328,0.001777782596210406,-0.0010989294440933118
171.5,0.00199375374265171,0.0018250742445521833,-0.0008558198675486883
172.0,0.0016359609219382784,0.0014672814238387516,-0.0010401362768127371
172.5,0.0014905063667139133,0.0013218268686143865,-0.0010320413920016577
173.0,0.001545100586619071,0.0013764210885195442,-0.0008419326811558957
173.5,0.0017550731965868351,0.0015863936984873083,-0.000513013969847967
174.0,0.0016992105222729964,0.0015305310241734696,-0.0004653810327688466
174.5,0.0016905433101048375,0.0015218638120053107,-0.0003851713671581766
175.0,0.0017087724120788466,0.0015400929139793198,-0.00029208581586369115
175.5,0.0015818791656912984,0.0014131996675917715,-0.0003577320849116933
176.0,0.0014353840520600592,0.0012667045539605324,-0.0004563243103318543
176.5,0.0014548349285312412,0.0012861554304317143,-0.00040215587584681127
177.0,0.0017226419273362167,0.00155396242923669,-0.00011272747945036089
177.5,0.0018006827019620894,0.0016320032038625626,-2.6106318235959852e-05
178.0,0.0022381800368468222,0.0020695005387472956,0.000406985712541566
178.5,0.00252995690954101,0.0023612774114414835,0.0006814597035749944
179.0,0.00239703687988987,0.0022283573817903435,0.0005184907690566826
179.5,0.0022727259122629407,0.002104046414163414,0.00035162798731879527
180.0,0.0022191741445830794,0.002050494646483553,0.00024338110673187202
180.5,0.0020464160257770564,0.0018777365276775296,4.281746826742235e-06
181.0,0.00243830584826576,0.0022696263501662335,0.00031883544311638013
181.5,0.0027228252199537045,0.002554145721854178,0.0005158404666275973
182.0,0.0023948104163778413,0.0022261309182783147,9.112085718512115e-05
182.5,0.002626920399876471,0.0024582409017769443,0.0002184941086379004
183.0,0.002180095838402844,0.0020114163403033175,-0.0003397763240202017
183.5,0.0025392150616158835,0.002370535563516357,-9.733771149400636e-05
184.0,0.002472963063153,0.0023042835650534735,-0.00028389755444621677
184.5,0.0023149763336228197,0.002146296835523293,-0.0005641026318876177
185.0,0.003065684035534399,0.0028970045374348725,6.427361528422385e-05
185.5,0.0032506889908798524,0.003082009492780326,0.00012867971961902413
186.0,0.003046407935907699,0.0028777284378081725,-0.00019260866884034285
186.5,0.003174177270184343,0.0030054977720848164,-0.0001764197570765496
187.0,0.0029503702015150515,0.002781690703415525,-0.0005046055920710536
187.5,0.003158949614726414,0.0029902701166268876,-0.00039152550324550277
188.0,0.003049263036780898,0.0028805835386813716,-0.000586285449190939
188.5,0.0030768497314888656,0.002908170233389339,-0.0006319621392211735
189.0,0.004013498145822019,0.0038448186477224927,0.0002444272586778662
189.5,0.004157046480572927,0.0039883669824734005,0.000341703396727208
190.0,0.004469579982756983,0.004300900484657456,0.0006227052175258201
190.5,0.004221868387254325,0.0040531888891547985,0.0003587164389488172
191.0,0.004381216848570608,0.0042125373504710815,0.0005173115719385125
191.5,0.004455899832584369,0.004287220334484842,0.0006067909022212012
192.0,0.0043267991567203035,0.004158119658620777,0.0005078253813287632
192.5,0.003948416260498169,0.003779736762398642,0.00017448108170445373
193.0,0.003946663427400911,0.0037779839293013845,0.0002320273523844646
193.5,0.003993532074638234,0.0038248525765387075,0.00035162608189041617
194.0,0.0038907887621809577,0.003722109264081431,0.0003340519191630336
194.5,0.0031966205855129695,0.003027941087413443,-0.0002636357380633725
195.0,0.0031425047213038495,0.002973825223204323,-0.0002111950922476626
195.5,0.0029582420325674386,0.002789562534467912,-0.0002801395853853565
196.0,0.003032601157878951,0.0028639216597794244,-8.306521931721262e-05
196.5,0.002762484027783008,0.0025938045296834814,-0.000224457359224143
197.0,0.002691264519207793,0.0025225850211082665,-0.0001623259647533428
197.5,0.002802642362244165,0.0026339628641446383,8.567231513395644e-05
198.0,0.002805381625124405,0.0026367021270248783,0.00022699407290074957
198.5,0.0023723977713358095,0.002203718273236283,-6.668522618751178e-05
199.0,0.002085618825215704,0.0019169393271161771,-0.00021459457815053572
199.5,0.0016330973472198631,0.0014644178491203363,-0.0005297431302078556
200.0,0.00153840662691756,0.0013697271288180331,-0.0004895148082153346
200.5,0.0013380014127068556,0.0011693219146073288,-0.0005583014624121413
201.0,0.0013626378246852158,0.001193958326585689,-0.00040607970860548977
201.5,0.0010228024941707446,0.0008541229960712179,-0.0006229811834853161
202.0,0.0010010461417452026,0.0008323666436456759,-0.0005269607181998926
202.5,0.0008591994441621268,0.0006905199460626001,-0.0005565842645449447
203.0,0.0012507669915504868,0.00108208749345096,-5.8640439738406706e-05
203.5,0.0010212135490097537,0.0008525340509102269,-0.00018786113851131027
204.0,0.0008818703794878099,0.0007131908813882832,-0.0002330231249799725
204.5,0.0010450773837654775,0.0008763978856659507,1.8185466336550853e-05
205.0,0.0009069918617496778,0.0007383123636501511,-3.8035183870831386e-05
205.5,0.001065316468788576,0.0008966369706890493,0.00019612212907188693
206.0,0.0008689758467772112,0.0007002963486776845,6.973907587061326e-05
206.5,0.0006608426902933229,0.0004921631921937961,-7.411107534921956e-05
207.0,0.0006911524811530841,0.0005224729830535573,1.5042755791945246e-05
207.5,0.0010837896723399432,0.0009151101742404165,0.00046134766744595124
208.0,0.0007000730568287874,0.0005313935587292607,0.00012640480080259241
208.5,0.0010225482229990136,0.0008538687248994869,0.0004930551500773299
209.0,0.0012552648491737815,0.0010865853510742547,0.0007656509458265337
209.5,0.0014615035921481687,0.0012928240940486418,0.0010077773787153797
210.0,0.001801708603216164,0.0016330291051166372,0.0013801806892884487
210.5,0.0017583415176943076,0.0015896620195947808,0.0013656184451620083
211.0,0.001680481479160807,0.00151180198106128,0.0013134565291525136
211.5,0.0015572056630271628,0.001388526164927636,0.0012130472554125898
212.0,0.0016228099578727943,0.0014541304597732675,0.001298948217617138
212.5,0.0015375977227807033,0.0013689182246811764,0.0012317097288743993
213.0,0.0005591163157322615,0.0003904368176327348,0.00026911048798710974
213.5,0.000877625233207433,0.0007089457351079063,0.000601625251843971
214.0,0.0007011965672946124,0.0005325170691950857,0.00043752516151971294
214.5,0.000664421170024801,0.0004957416719252743,0.00041158405594171865
215.0,0.0009228105137348573,0.0007541310156353306,0.0006794807098516489
215.5,0.0008416705298628807,0.0006729910317633539,0.0006066732307961223
216.0,0.0006968998035273671,0.0005282203054278404,0.0004691979496150807
216.5,0.000873391261883176,0.0007047117637836493,0.0006520719044920075
217.0,0.0006482360107294096,0.0004795565126298829,0.00043249754006123353
217.5,0.0010772997178225751,0.0009086202197230484,0.0008664399918518985
218.0,0.0006210723640812195,0.00045239286598169274,0.0004144777536388595
218.5,0.0004237630535975932,0.0002550835554980664,0.00022089839923441037
219.0,0.00016867949809952674,0.0,-3.09210411573304e-05
219.5,0.0004583339725952336,0.0002896544744957068,0.00026159273464645836
220.0,0.0007584127998019937,0.000589733301702467,0.000564179604211158
