wavelength,absorbance,absorbance_bk,residual_3gauss
117.0,0.9965412493732544,0.9960362991832323,0.00033721222314275767
117.5,0.977169490330472,0.9766645401404499,-0.01065826245834478
118.0,0.9782994592999207,0.9777945091098986,7.04675812048805e-05
118.5,0.9675423512775329,0.9670374010875108,6.361625707107521e-05
119.0,0.9532208987220384,0.9527159485320164,-0.002429260820081658
119.5,0.946298864438604,0.945793914248582,0.0034805971470358577
120.0,0.9302606873163904,0.9297557371263684,0.001201073597166813
120.5,0.9175208766782531,0.917015926488231,0.0030687194800689266
121.0,0.9022334707661444,0.9017285205761223,0.0031582169611169553
121.5,0.8886128772748612,0.8881079270848391,0.00560305503801295
122.0,0.8686189391170716,0.8681139889270495,0.0022802364126642827
122.5,0.850130627414802,0.84962567722478,0.0009833972354721388
123.0,0.8321853995101415,0.8316804493201194,0.0006613638068009298
123.5,0.8118017643125565,0.8112968141225344,-0.0017603146311707674
124.0,0.792035347184373,0.7915303969943509,-0.00332455318749314
124.5,0.7719300062424346,0.7714250560524125,-0.005093056026941434
125.0,0.7535285549146944,0.7530236047246723,-0.005137169708799849
125.5,0.7341749317844394,0.7336699815944173,-0.0062373440447102135
126.0,0.7158701132852366,0.7153651630952146,-0.00652879728453537
126.5,0.6985884777550229,0.6980835275650008,-0.006186542761384195
127.0,0.6820111966088626,0.6815062464188405,-0.00569304368823409
127.5,0.6674095460548009,0.6669045958647788,-0.0039554285541190115
128.0,0.6541736959419641,0.653668745751942,-0.001776529556042905
128.5,0.6409776296498056,0.6404726794597836,-0.0006889149211927181
129.0,0.63109307329934,0.6305881231093179,0.0023611178611309125
129.5,0.6216893254277536,0.6211843752377315,0.004316597186575288
130.0,0.6138259135667014,0.6133209633766793,0.006006972965349466
130.5,0.6088578973579304,0.6083529471679083,0.00855907120204491
131.0,0.60429625838926,0.603791308199238,0.00926426852148221
131.5,0.601781397501088,0.6012764473110659,0.009559743609626525
132.0,0.6018814977861491,0.601376547596127,0.009835314658904304
132.5,0.6040130343006792,0.6035080841106572,0.00936281517478943
133.0,0.6086180331521713,0.6081130829621493,0.008482215246287117
133.5,0.6157682136382248,0.6152632634482027,0.007214178521868453
134.0,0.6248126378548747,0.6243076876648527,0.004915212419124515
134.5,0.6363236601220492,0.6358187099320272,0.0022297417802145114
135.0,0.6506464178663354,0.6501414676763133,-0.0003560797787780512
135.5,0.66777430848065,0.667269358290628,-0.0026367394701458657
136.0,0.6873746064133046,0.6868696562232826,-0.004662033933245713
136.5,0.7102754592169668,0.7097705090269447,-0.005252957902706523
137.0,0.735360419562576,0.734855469372554,-0.005112688447819869
137.5,0.7629242269645515,0.7624192767745295,-0.0034788495408883957
138.0,0.7916490997186064,0.7911441495285844,-0.0011575629815722133
138.2,0.8022364016375018,0.8017314514474797,-0.0011433461037833048
138.4,0.8135524300510506,0.8130474798610285,-0.00035366306710438167
138.6,0.8250584884175192,0.8245535382274971,0.0007088809373508864
138.8,0.8354425971803072,0.8349376469902852,0.0007685592665600538
139.0,0.8462740893954404,0.8457691392054183,0.0014309650008241803
139.2,0.8570216218789598,0.8565166716889377,0.002200866605056029
139.4,0.8667475143712883,0.8662425641812662,0.002176391558485813
139.6,0.876895767377288,0.876390817187266,0.0028368895900677815
139.8,0.8855084215411203,0.8850034713510982,0.0022591393407197513
140.0,0.8950879102150127,0.8945829600249906,0.0029795510470400632
140.2,0.9029652689482045,0.9024603187581824,0.002362229871497923
140.4,0.91052217177112,0.910017221581098,0.001820870606162317
140.6,0.917071510467104,0.9165665602770819,0.0006992007372853548
140.8,0.9234092374569104,0.9229042872668883,-0.0001773067761607905
141.0,0.9293523250330593,0.9288473748430373,-0.0009635976219035669
141.2,0.9340859111337635,0.9335809609437414,-0.0024480063978851163
141.4,0.9391298375697316,0.9386248873797095,-0.003085826638337008
141.6,0.9437814701220941,0.9432765199320721,-0.0035565908207457753
141.8,0.9478173344470237,0.9473123842570016,-0.004062526167248892
142.0,0.9511050331588675,0.9506000829688455,-0.004716720736898439
142.2,0.9543160255746375,0.9538110753846154,-0.00483041831825648
142.4,0.957037604306321,0.956532654116299,-0.004801108054832359
142.6,0.9601725274796172,0.9596675772895952,-0.003712950270182813
142.8,0.9614293635770211,0.9609244133869991,-0.003846481862741613
143.0,0.9630536183109752,0.9625486681209532,-0.0029475323469561054
143.2,0.9632114593080064,0.9627065091179844,-0.002843535342951453
143.4,0.9630060263910972,0.9625010762010752,-0.002427248391956849
143.6,0.9626194926492954,0.9621145424592733,-0.001514716628175261
143.8,0.9613898095739392,0.9608848593839171,-0.0007685477692248588
144.0,0.9592383099008807,0.9587333597108586,-0.000270325508288094
144.2,0.9563204341433263,0.9558154839533043,0.0001301040212912108
144.4,0.952025068773,0.9515201185829779,-0.00018603986662923955
144.6,0.9472248478568572,0.9467198976668352,-0.00035617871512994004
144.8,0.9427493925969171,0.9422444424068951,0.00043685892394862424
145.0,0.9365902030951347,0.9360852529051127,0.00016972602131426484
145.2,0.9310099989496323,0.9305050487596103,0.0010878974764171323
145.4,0.9242155922791256,0.9237106420891036,0.0013785470154117352
145.6,0.9167051900336916,0.9162002398436695,0.0015178589417707
145.8,0.9094636792895904,0.9089587290995683,0.0024663304556562515
146.0,0.9002756913072754,0.8997707411172533,0.0019818628680655648
146.2,0.8914688609921789,0.8909639108021569,0.0023630614125906835
146.4,0.8825194581892474,0.8820145079992253,0.0030549236234983512
146.6,0.8721065363205861,0.871601586130564,0.002703065726354592
146.8,0.8610543866644541,0.860549436474432,0.0020962795644572374
147.0,0.8505201431871043,0.8500151929970823,0.0023542693373082013
147.2,0.8384181576012992,0.8379132074112772,0.0013521921459014319
147.4,0.8266872330600232,0.8261822828700012,0.000988094813713758
147.6,0.814124210580867,0.813619260390845,1.6744635771726024e-05
147.8,0.8019296957672718,0.8014247455772497,-0.00040435558630613766
148.0,0.7884504894394747,0.7879455392494527,-0.001972202853423921
148.2,0.7765992748932928,0.7760943247032708,-0.0018182264459849495
148.4,0.7651342082795172,0.7646292580894951,-0.0012282721619735204
148.6,0.7537940038151448,0.7532890536251228,-0.00050704944500779
148.8,0.7429888465283971,0.7424838963383751,0.0007132865455665716
149.0,0.731907487846803,0.731402537656781,0.0015807664694100776
149.2,0.7212610696165509,0.7207561194265288,0.0027679887466431907
149.4,0.710620903339823,0.7101159531498009,0.0038104679554658016
149.6,0.6999315065487287,0.6994265563587067,0.004620239085906697
149.8,0.6893101150105558,0.6888051648205338,0.005285922312119995
150.0,0.6785961742993856,0.6780912241093635,0.005622736636144765
150.5,0.6522786161996177,0.6517736660095956,0.0057841782858713
151.0,0.626320327305516,0.625815377115494,0.0045693114830591686
151.5,0.6001290696406412,0.5996241194506191,0.0014620948109602683
152.0,0.5757812249317419,0.5752762747417198,-0.0011584097933410309
152.5,0.5529666631600858,0.5524617129700637,-0.003105150506027776
153.0,0.5314676353740693,0.5309626851840472,-0.003965129359138508
153.5,0.5098145373198009,0.5093095871297788,-0.004526520848334492
154.0,0.4868751425177743,0.48637019232775225,-0.005282516656147929
154.5,0.46315352056313014,0.4626485703731081,-0.005221350315288642
155.0,0.43838677624833405,0.437881826058312,-0.004300336108418346
155.5,0.41260320623818086,0.4120982560481588,-0.0024294691891298403
156.0,0.38480320348751135,0.3842982532974893,-0.0007977130386925269
156.5,0.35617230315827986,0.3556673529682578,0.0013667571955989777
157.0,0.32769750579639406,0.327192555606372,0.004467127993998343
157.5,0.2982720747182075,0.29776712452818543,0.006714149330371344
158.0,0.26884905817930915,0.2683441079892871,0.00835615757327468
158.5,0.2398060376112789,0.2393010874212568,0.009114093037156296
159.0,0.21071810824242532,0.21021315805240323,0.008009835486525563
159.5,0.18246867143047624,0.18196372124045415,0.005512482573399924
160.0,0.15591359607501873,0.15540864588499664,0.00221707215994682
160.5,0.13075234219679682,0.13024739200677474,-0.002288418244840551
161.0,0.10873688062433248,0.10823193043431041,-0.006232507383347255
161.5,0.08975489522857842,0.08924994503855635,-0.009604162415433076
162.0,0.07296238575940125,0.07245743556937918,-0.013050840925161233
162.5,0.059086480077608285,0.058581529887586206,-0.01560542123745079
163.0,0.04758670503164036,0.04708175484161828,-0.017550709120110544
163.5,0.03905372655507828,0.0385487763650562,-0.018040847044471273
164.0,0.03142739892846661,0.030922448738444533,-0.018897338935907726
164.5,0.02581273556878936,0.02530778537876728,-0.018801524649245137
165.0,0.02123270047341632,0.020727750283394242,-0.018545587222220168
165.5,0.017513380038370784,0.017008429848348706,-0.018147731907218478
166.0,0.014643677069454911,0.014138726879432835,-0.017490571372620833
166.5,0.01250420052219534,0.011999250332173264,-0.016589049196284435
167.0,0.010662833457813017,0.01015788326779094,-0.015791187431320998
167.5,0.009306493381404319,0.008801543191382242,-0.014842668689437882
168.0,0.00816904657469242,0.007664096384670342,-0.013955603256420458
168.5,0.006845431400579542,0.006340481210557464,-0.013491574301090022
169.0,0.006112229645633494,0.005607279455611416,-0.012638756969616367
169.5,0.0056382216709171176,0.00513327148089504,-0.011699541845478379
170.0,0.005165783125449349,0.004660832935427271,-0.010907736971669635
170.5,0.004680270697920824,0.004175320507898746,-0.010258122150905581
171.0,0.004666177546929444,0.0041612273569073665,-0.009249499547373575
171.5,0.004559543332754824,0.004054593142732746,-0.008431690984534388
172.0,0.0042896099526589584,0.0037846597626368813,-0.007863439230530895
172.5,0.004030499008259228,0.003525548818237151,-0.007360398295318716
173.0,0.0038960347642793018,0.0033910845742572246,-0.006800060842449067
173.5,0.0037358866665054935,0.0032309364764834163,-0.006325428951752526
174.0,0.0036316271055537616,0.0031266769155316844,-0.0058488189281095245
174.5,0.0035108967523627167,0.0030059465623406396,-0.005437598179100094
175.0,0.003724425048216152,0.0032194748581940748,-0.004737099123913936
175.5,0.0036358950903114303,0.003130944900289353,-0.004380714212463874
176.0,0.0038585753945875145,0.0033536252045654373,-0.0037532425806086275
176.5,0.003698044603646635,0.003193094413624558,-0.003548154210716292
177.0,0.0047426825682491645,0.004237732378227087,-0.0021770886198644573
177.5,0.00491558556366118,0.004410635373639103,-0.0017179192343835742
178.0,0.004921354588931357,0.004416404398909279,-0.0014679222483980105
178.5,0.005467293483746379,0.004962343293724301,-0.0007225005722058583
179.0,0.005742480789216855,0.005237530599194778,-0.00029598703404318423
179.5,0.005766754010872563,0.0052618038208504855,-0.00017247847559439568
180.0,0.006221912131075194,0.005716961941053116,0.00032561097699182646
180.5,0.006492769161195867,0.00598781897117379,0.0005789107134522254
181.0,0.006704632292097005,0.006199682102074927,0.000708935804294499
181.5,0.006971657671098648,0.00646670748107657,0.0008268497900251037
182.0,0.007560700331204396,0.007055750141182319,0.0011977433154643485
182.5,0.007837166273328153,0.0073322160833060755,0.0011869086338506278
183.0,0.00772946649982983,0.007224516309807753,0.0007246769430821138
183.5,0.008410783924254478,0.007905833734232402,0.000988494456066245
184.0,0.008615156393469835,0.008110206203447759,0.0007192065475224319
184.5,0.008849192312982786,0.00834424212296071,0.00043283732474941675
185.0,0.009610576443465678,0.009105626253443602,0.0006390013059774675
185.5,0.009762191487002034,0.009257241296979957,0.00021476314912887047
186.0,0.010058836768160316,0.00955388657813824,-6.906974775951896e-05
186.5,0.010427768823678832,0.009922818633656755,-0.000267979545988525
187.0,0.01059184047913298,0.010086890289110903,-0.0006412880045722838
187.5,0.010451051223426709,0.009946101033404632,-0.001271369847177975
188.0,0.010830590777084516,0.010325640587062439,-0.0013163983182532327
188.5,0.011508626017622368,0.011003675827600291,-0.000983320117184494
189.0,0.012654173404583887,0.01214922321456181,-9.066615513113156e-05
189.5,0.012565515824283226,0.01206056563426115,-0.00033069356267628747
190.0,0.01287395596042077,0.012369005770398693,-6.603087025734526e-05
190.5,0.01245877958123978,0.011953829391217703,-0.0004149295821422455
191.0,0.012303074333637344,0.011798124143615267,-0.0003954673608919778
191.5,0.012453502596925225,0.011948552406903148,3.4390518268064343e-05
192.0,0.012159441349968284,0.011654491159946207,0.00011626592115179628
192.5,0.01240482233891848,0.011899872148896403,0.000823682652766668
193.0,0.011876852728272666,0.01137190253825059,0.0008313641774692297
193.5,0.011492075233449695,0.010987125043427618,0.0010419316728494128
194.0,0.01086198476638744,0.010357034576365363,0.001052177213026903
194.5,0.010037353789158154,0.009532403599136078,0.000898024722835733
195.0,0.008942251895067043,0.008437301705044966,0.0004891300952045031
195.5,0.007985315833539052,0.007480365643516974,0.00022064995248617398
196.0,0.007473607385357435,0.006968657195335358,0.0003874982146215948
196.5,0.006450958071349276,0.005946007881327198,2.2979954711663253e-05
197.0,0.005502308363226697,0.004997358173204619,-0.0002966910544352601
197.5,0.004695035526833213,0.004190085336811135,-0.0005109910989745427
198.0,0.004220535230288454,0.003715585040266377,-0.00043352494511718397
198.5,0.0031043940368576063,0.002599443846835529,-0.001041951362005977
199.0,0.0030562052143600646,0.0025512550243379875,-0.0006283256697159948
199.5,0.0024868443580593883,0.001981894168037311,-0.00078202456053687
200.0,0.0021001285053629734,0.0015951783153408962,-0.000798312000163543
200.5,0.002025467268872033,0.001520517078849956,-0.0005459219457162648
201.0,0.0014059847484565167,0.0009010345584344394,-0.0008791658642240782
201.5,0.0011162868651636124,0.0006113366751415351,-0.0009203800107236306
202.0,0.0010931525136948944,0.0005882023236728171,-0.0007294266178823591
202.5,0.0012135570325229926,0.0007086068425009154,-0.00042583584980580597
203.0,0.0014772530139797128,0.0009723028239576355,-6.361339492816863e-06
203.5,0.0016340807400112179,0.0011291305499891405,0.000282223062944846
204.0,0.0012948081512647463,0.000789857961242669,5.388372267221375e-05
204.5,0.001327670438775156,0.0008227202487530787,0.0001798122708941166
205.0,0.0012509848832139671,0.0007460346931918899,0.00018100754521633655
205.5,0.001392802660384393,0.0008878524703623158,0.00038791245604295234
206.0,0.0014767565911758067,0.0009718064011537295,0.0005262610480391082
206.5,0.0013037700294121024,0.0007988198393900251,0.0003987974397746624
207.0,0.001452804034153095,0.0009478538441310178,0.0005860406301813375
207.5,0.001290981581515284,0.0007860313914932066,0.00045643121093439927
208.0,0.0012979681537903442,0.0007930179637682669,0.0004907370852803162
208.5,0.001403495668868957,0.0008985454788468797,0.0006196033937530885
209.0,0.0017028133699888651,0.001197863179966788,0.0009390289460074299
209.5,0.0018076715024386955,0.0013027213124166184,0.0010613740551662454
210.0,0.0020663198026802847,0.0015613696126582075,0.0013353811998310235
210.5,0.001994875957838211,0.001489925767816134,0.0012775633381913512
211.0,0.0020298395088374794,0.0015248893188154022,0.0013247352202244412
211.5,0.001785221231862036,0.0012802710418399585,0.001091157756842631
212.0,0.001881911834327816,0.0013769616443057389,0.0011979194107691838
212.5,0.001945300389233318,0.0014403501992112408,0.0012705652272982906
213.0,0.0009472848963893356,0.00044233470636725837,0.0002811161230017878
213.5,0.0014011837488121,0.0008962335587900228,0.0007429874526440517
214.0,0.0013460692131763033,0.000841119023154226,0.000695328201342505
214.5,0.001170543767148262,0.0006655935771261848,0.000526801868321836
215.0,0.0008484248228754758,0.00034347463285339856,0.00021127477402256976
215.5,0.0011105723234872485,0.0006056221334651712,0.00047964645572802196
216.0,0.0008514277981948162,0.00034647760817273893,0.0002263908906828461
216.5,0.0009962995424715672,0.0004913493524494899,0.00037684334251322186
217.0,0.0011089837534055192,0.0006040335633834419,0.0004948227681956745
217.5,0.0013046184079862598,0.0007996682179641825,0.0006954866607463768
218.0,0.0011002877927180647,0.0005953376026959874,0.00049593630632945
218.5,0.0007970148891205601,0.00029206469909848285,0.00019720971617437886
219.0,0.0005049501900220773,0.0,-9.052914798157473e-05
219.5,0.0009429822066510067,0.00043803201662892944,0.00035162043908398106
220.0,0.0012167567063573346,0.0007118065163352574,0.000629315432547855
