wavelength,absorbance,absorbance_bk,residual_3gauss,Gauss_1,Gauss_2,Gauss_3,Gauss_4,Gauss_fit
117.0,0.9965412493732544,0.9960362991832323,0.00033721226700345053,1.7832906073716644e-06,1.2343000340184872e-57,0.9956973036256215,3.3531627700584826e-132,0.9956990869162289
117.5,0.977169490330472,0.9766645401404499,-0.01065826242178003,3.189191716453687e-06,1.0446292401864364e-55,0.9873196133705134,2.3503425134409202e-129,0.9873228025622299
118.0,0.9782994592999207,0.9777945091098986,7.04676106190183e-05,5.601353508599078e-06,7.886506933180152e-54,0.977718440145771,1.4503776231099395e-126,0.9777240414992796
118.5,0.9675423512775329,0.9670374010875108,6.361627950812743e-05,9.665636026202632e-06,5.323973677396221e-52,0.9669641191719764,7.899474116767287e-124,0.9669737848080027
119.0,0.9532208987220384,0.9527159485320164,-0.002429260804420408,1.6393064942865444e-05,3.2213566058852265e-50,0.9551288162714939,3.8067223388374514e-121,0.9551452093364368
119.5,0.946298864438604,0.945793914248582,0.0034805971561494564,2.7336653350412628e-05,1.7510253427957238e-48,0.9422859804390821,1.6269890117036399e-118,0.9423133170924325
120.0,0.9302606873163904,0.9297557371263684,0.0012010735999888889,4.4837906577483986e-05,8.569835496413623e-47,0.928509825619802,6.181861049019159e-116,0.9285546635263795
120.5,0.9175208766782531,0.917015926488231,0.003068719476884585,7.236285233032837e-05,3.784704394264314e-45,0.9138748441590161,2.0929208900050096e-113,0.9139472070113465
121.0,0.9022334707661444,0.9017285205761223,0.0031582169522427206,0.00011494982253379022,1.5114777800417663e-43,0.8984553538013458,6.3279151936884744e-111,0.8985703036238796
121.5,0.8886128772748612,0.8881079270848391,0.0056030550238004295,0.00017979249563878963,5.470049744234584e-42,0.8823250795653999,1.712364434264686e-108,0.8825048720610387
122.0,0.8686189391170716,0.8681139889270495,0.0022802363935040537,0.0002769812210012825,1.797582884378676e-40,0.8655567713125442,4.1561538192351624e-106,0.8658337525335454
122.5,0.850130627414802,0.84962567722478,0.0009833972117999634,0.00042042264931029536,5.374805439062705e-39,0.8482218573636697,9.066888989327836e-104,0.84864228001298
123.0,0.8321853995101415,0.8316804493201194,0.0006613637791033078,0.0006289514418777759,1.4650785759926357e-37,0.8303901340991383,1.7815066734910857e-101,0.8310190855410161
123.5,0.8118017643125565,0.8112968141225344,-0.0017603146623493826,0.0009276376802859341,3.647642421041482e-36,0.8121294911045979,3.1590069426148432e-99,0.8130571287848838
124.0,0.792035347184373,0.7915303969943509,-0.00332455322154368,0.001349279117040741,8.310492254210926e-35,0.7935056710988538,5.06523956568281e-97,0.7948549502158946
124.5,0.7719300062424346,0.7714250560524125,-0.005093056063184331,0.0019360485172295202,1.735785340859436e-33,0.7745820635983673,7.358161114144171e-95,0.7765181121155968
125.0,0.7535285549146944,0.7530236047246723,-0.00513716974648093,0.002741243436118224,3.329613335078154e-32,0.755419531035035,9.702281408802926e-93,0.7581607744711533
125.5,0.7341749317844394,0.7336699815944173,-0.006237344082998697,0.003831059830142092,5.875927475518663e-31,0.7360762658472739,1.1633524889226045e-90,0.739907325677416
126.0,0.7158701132852366,0.7153651630952146,-0.006528797322526425,0.0052862835107082805,9.556156069187564e-30,0.7166076769070328,1.2707553617339344e-88,0.721893960417741
126.5,0.6985884777550229,0.6980835275650008,-0.006186542798105377,0.007203766838740018,1.434620474260424e-28,0.6970663035243662,1.2667448582626637e-86,0.7042700703631062
127.0,0.6820111966088626,0.6815062464188405,-0.00569304372265822,0.009697534957730297,1.991335690809968e-27,0.6775017551837684,1.154356242726285e-84,0.6871992901414987
127.5,0.6674095460548009,0.6669045958647788,-0.003955428585183163,0.0128993493402425,2.559744147863081e-26,0.6579606751097195,9.632631492353901e-83,0.670860024449962
128.0,0.6541736959419641,0.653668745751942,-0.001776529582675157,0.016958549604995966,3.05189028658809e-25,0.6384867257296212,7.372582487310257e-81,0.6554452753346172
128.5,0.6409776296498056,0.6404726794597836,-0.00068891494234391,0.02204100030440116,3.3800433521074e-24,0.6191205940977264,5.183986789435596e-79,0.6411615944021275
129.0,0.63109307329934,0.6305881231093179,0.0023611178464466587,0.028326989902384025,3.4825934709285015e-23,0.5999000153604872,3.353997507583497e-77,0.6282270052628712
129.5,0.6216893254277536,0.6211843752377315,0.004316597179237824,0.03600796567905305,3.34304651590912e-22,0.5808598123794406,1.999800671599205e-75,0.6168677780584937
130.0,0.6138259135667014,0.6133209633766793,0.006006972966085211,0.045282040731339505,2.994051840165649e-21,0.5620319496792546,1.1005053423855422e-73,0.6073139904105941
130.5,0.6088578973579304,0.6083529471679083,0.008559071211378888,0.05634827600311242,2.5052905819890214e-20,0.543445599953417,5.597854256241869e-72,0.5997938759565294
131.0,0.60429625838926,0.603791308199238,0.009264268539693754,0.06939981822371614,1.9612378448481045e-19,0.5251272214358281,2.635748857967696e-70,0.5945270396595442
131.5,0.601781397501088,0.6012764473110659,0.009559743636709639,0.08461605914348369,1.438316397871107e-18,0.5071006445308726,1.1504170981001902e-68,0.5917167036743562
132.0,0.6018814977861491,0.601376547596127,0.009835314694537689,0.10215406671608203,9.894565410980086e-18,0.48938716618550726,4.660993439104097e-67,0.5915412329015893
132.5,0.6040130343006792,0.6035080841106572,0.009362815218318832,0.12213961830990597,6.393093337807526e-17,0.4720056505824323,1.7553510296359948e-65,0.5941452688923383
133.0,0.6086180331521713,0.6081130829621493,0.008482215296722107,0.14465823283343515,3.884538081864852e-16,0.4549726348319917,6.153043789129213e-64,0.5996308676654272
133.5,0.6157682136382248,0.6152632634482027,0.007214178577897523,0.16974664642980355,2.2223481766749827e-15,0.43830243844049943,2.0101239672449258e-62,0.6080490848703052
134.0,0.6248126378548747,0.6243076876648527,0.0049152124791468355,0.19738519975281,1.1985280898170307e-14,0.4220072754328839,6.127976456206999e-61,0.6193924751857058
134.5,0.6363236601220492,0.6358187099320272,0.0022297418423908866,0.2274915999827487,6.100363030718356e-14,0.4060973681068266,1.7454843394874398e-59,0.6335889680896363
135.0,0.6506464178663354,0.6501414676763133,-0.00035607971645790215,0.2599164858996228,2.933807662798307e-13,0.3905810614928551,4.6510556833824865e-58,0.6504975473927712
135.5,0.66777430848065,0.667269358290628,-0.0026367394097815966,0.2944411600096032,1.3346355700158518e-12,0.3754649376894717,1.1607670387786276e-56,0.6699060977004095
136.0,0.6873746064133046,0.6868696562232826,-0.004662033876933314,0.3307777607609328,5.749434944120348e-12,0.3607539293335336,2.7164841137008117e-55,0.6915316901002159
136.5,0.7102754592169668,0.7097705090269447,-0.005252957852439066,0.36857203530259364,2.3479309158860005e-11,0.3464514315533108,5.968127835137913e-54,0.7150234668793838
137.0,0.735360419562576,0.734855469372554,-0.0051126884053877,0.407408745852436,9.099124530555919e-11,0.3325594118345144,1.2323329637762409e-52,0.7399681577779417
137.5,0.7629242269645515,0.7624192767745295,-0.0034788495077822112,0.44681960863959974,3.349769606407572e-10,0.319078517307735,2.3941827146993297e-51,0.7658981262823117
138.0,0.7916490997186064,0.7911441495285844,-0.0011575629588974623,0.4862935322757908,1.172651178906537e-09,0.3060081790390399,4.381233673251819e-50,0.7923017124874818
138.2,0.8022364016375018,0.8017314514474797,-0.001143346085490049,0.5019801381467657,1.9089980119606054e-09,0.3008946574772061,1.378473618280191e-49,0.8028747975329698
138.4,0.8135524300510506,0.8130474798610285,-0.0003536630532645635,0.5175547276219372,3.083471532900733e-09,0.29584641220888447,4.296799412958362e-49,0.8134011429142931
138.6,0.8250584884175192,0.8245535382274971,0.000708880946697743,0.5329813888304781,4.941957846799878e-09,0.2908632635083634,1.3269823540039184e-48,0.8238446572807994
138.8,0.8354425971803072,0.8349376469902852,0.0007685592714088418,0.5482240723287907,7.85976069053474e-09,0.285945007530325,4.060572767481382e-48,0.8341690877188763
139.0,0.8462740893954404,0.8457691392054183,0.0014309650012048758,0.5632467445526547,1.2405010823874356e-08,0.28109141724654796,1.2312321187409911e-47,0.8443381742042134
139.2,0.8570216218789598,0.8565166716889377,0.0022008666010330247,0.578013542291298,1.9430708453531738e-08,0.2763022433658983,3.6995699455609336e-47,0.8543158050879047
139.4,0.8667475143712883,0.8662425641812662,0.0021763915501592512,0.5924889271865412,3.0207146006780804e-08,0.2715772152374197,1.1016640331565908e-46,0.864066172631107
139.6,0.876895767377288,0.876390817187266,0.0028368895775728875,0.6066378392626225,4.661074211760559e-08,0.26691604173632844,3.2513329994508718e-46,0.8735539276096931
139.8,0.8855084215411203,0.8850034713510982,0.002259139324226278,0.620425848503189,7.139093714839958e-08,0.2623184121327458,9.510768168949673e-46,0.882744332026872
140.0,0.8950879102150127,0.8945829600249906,0.0029795510267518477,0.6338193035110866,1.08544084002995e-07,0.25778399694306803,2.757648399587556e-45,0.8916034089982388
140.2,0.9029652689482045,0.9024603187581824,0.002362229847652886,0.6467854763140979,1.6383259131721903e-07,0.2533124487638404,7.926079377523343e-45,0.9000980889105296
140.4,0.91052217177112,0.910017221581098,0.0018208705790294655,0.6592927024146289,2.4549935789894317e-07,0.24890340308808165,2.2584008477144545e-44,0.9081963510020685
140.6,0.917071510467104,0.9165665602770819,0.0006992007071647821,0.671310515223689,3.652422275248107e-07,0.24455647910400055,6.379598847704776e-44,0.9158673595699172
140.8,0.9234092374569104,0.9229042872668883,-0.00017730680893957018,0.6828097740685135,5.395312543865029e-07,0.24027128047606,1.7867421401146862e-43,0.9230815940758279
141.0,0.9293523250330593,0.9288473748430373,-0.000963597656984394,0.6937627850181661,7.913734481416908e-07,0.2360473961084074,4.961726046295136e-43,0.9298109725000216
141.2,0.9340859111337635,0.9335809609437414,-0.0024480064348870734,0.7041434138322226,1.1526557544644352e-06,0.23188440089065143,1.3662560348900868e-42,0.9360289673786285
141.4,0.9391298375697316,0.9386248873797095,-0.003085826676856418,0.7139271904029134,1.667227604810247e-06,0.22778185642604765,3.730659630470569e-42,0.9417107140565659
141.6,0.9437814701220941,0.9432765199320721,-0.003556590860358866,0.7230914041307627,2.394919546247513e-06,0.22373931174212205,1.0102270521361335e-41,0.9468331107924309
141.8,0.9478173344470237,0.9473123842570016,-0.00406252620751546,0.7316151897466165,3.416734093421588e-06,0.2197563039838071,2.7130487631162523e-41,0.951374910464517
142.0,0.9511050331588675,0.9506000829688455,-0.004716720777364181,0.7394796031684922,4.841488539455603e-06,0.2158323590891781,7.226477455190738e-41,0.9553168037462096
142.2,0.9543160255746375,0.9538110753846154,-0.004830418358456767,0.7466676870591055,6.814236084029903e-06,0.21196699244788267,1.909198835608777e-40,0.9586414937430722
142.4,0.957037604306321,0.956532654116299,-0.004801108094295681,0.7531645258284104,9.52683979651205e-06,0.2081597095423877,5.0032930263654164e-40,0.9613337622105946
142.6,0.9601725274796172,0.9596675772895952,-0.0037129503084346593,0.7589572899043768,1.3231121486831885e-05,0.20441000657216613,1.3006654517007355e-39,0.9633805275980298
142.8,0.9614293635770211,0.9609244133869991,-0.0038464818993086958,0.7640352691737278,1.8255051618313594e-05,0.20071737106096163,3.3543207137676506e-39,0.9647708952863078
143.0,0.9630536183109752,0.9625486681209532,-0.0029475323813703547,0.7683898955717609,2.5022483263320964e-05,0.19708128244729936,8.582169975316371e-39,0.9654962005023235
143.2,0.9632114593080064,0.9627065091179844,-0.002843535374755235,0.772014754876122,3.40769582291665e-05,0.19350121265838838,2.1785485008101992e-38,0.9655500444927396
143.4,0.9630060263910972,0.9625010762010752,-0.0024272484207071843,0.7749055878326696,4.6110121500148413e-05,0.18997662666761256,5.487048583917832e-38,0.9649283246217824
143.6,0.9626194926492954,0.9621145424592733,-0.0015147166534493772,0.7770602808119922,6.199526494910547e-05,0.1865069830357814,1.3713095518835069e-37,0.9636292591127227
143.8,0.9613898095739392,0.9608848593839171,-0.0007685477906251847,0.7784788462620077,8.282647619956343e-05,0.18309173443633497,3.40079776857748e-37,0.9616534071745423
144.0,0.9592383099008807,0.9587333597108586,-0.00027032552544814514,0.7791633932849894,0.00010996378659450694,0.1797303281647228,8.36947136803832e-37,0.9590036852363067
144.2,0.9563204341433263,0.9558154839533043,0.00013010400870117067,0.7791180887259219,0.0001450845865363822,0.1764222066321448,2.044138357799085e-36,0.9556853799446031
144.4,0.952025068773,0.9515201185829779,-0.0001860398743618319,0.7783491092128327,0.00019024140061397291,0.17316680784389302,4.954964308541966e-36,0.9517061584573397
144.6,0.9472248478568572,0.9467198976668352,-0.0003561787177661646,0.7768645846384763,0.00024792588361999973,0.1699635658625051,1.192096801653589e-35,0.9470760763846013
144.8,0.9427493925969171,0.9422444424068951,0.00043685892659306447,0.7746745336161315,0.00032113860820701345,0.1668119112559635,2.846727224090144e-35,0.941807583480302
145.0,0.9365902030951347,0.9360852529051127,0.0001697260293634928,0.7717907914801976,0.0004134638643659618,0.16371127153118567,6.747858105661134e-35,0.9359155268757492
145.2,0.9310099989496323,0.9305050487596103,0.0010878974899293237,0.7682269314345457,0.0005291482821083635,0.16066107155302684,1.5877935231970921e-34,0.9294171512696809
145.4,0.9242155922791256,0.9237106420891036,0.0013785470343741224,0.7639981794782152,0.000673181627455887,0.1576607339490583,3.7089602480828605e-34,0.9223320950547295
145.6,0.9167051900336916,0.9162002398436695,0.0015178589660941322,0.7591213237589641,0.0008513776182496187,0.1547096795003616,8.601264442157925e-34,0.9146823808775754
145.8,0.9094636792895904,0.9089587290995683,0.0024663304851721968,0.7536146190204522,0.0010704520753579644,0.15180732751858594,1.9803690131500206e-33,0.9064923986143961
146.0,0.9002756913072754,0.8997707411172533,0.0019818629025222245,0.7474976868186137,0.001338095186583444,0.14895309620953393,4.52715339730571e-33,0.8977888782147311
146.2,0.8914688609921789,0.8909639108021569,0.002363061451651327,0.740791412187092,0.0016630341398891752,0.1461464030235243,1.0275925887502444e-32,0.8886008493505055
146.4,0.8825194581892474,0.8820145079992253,0.003054923666740983,0.7335178374307509,0.002055081908946816,0.14338666499278666,2.3160856543792522e-32,0.8789595843324843
146.6,0.8721065363205861,0.871601586130564,0.002703065773272506,0.7257000537205013,0.002525167580624845,0.1406732990561654,5.18378812384751e-32,0.8688985203572915
146.8,0.8610543866644541,0.860549436474432,0.0020962796144616824,0.7173620911520192,0.0030853433365843203,0.13800572237136685,1.1521784598273212e-31,0.8584531568599704
147.0,0.8505201431871043,0.8500151929970823,0.0023542693897334876,0.7085288079161242,0.003748763076184809,0.13538335261503984,2.543272503359752e-31,0.8476609236073488
147.2,0.8384181576012992,0.8379132074112772,0.0013521922000108155,0.6992257792093823,0.004529627730957175,0.1328056082709268,5.5755442573248715e-31,0.8365610152112664
147.4,0.8266872330600232,0.8261822828700012,0.0009880948687090996,0.6894791864908211,0.005443092604105275,0.13027190890636575,1.2140129014379433e-30,0.8251941880012921
147.6,0.814124210580867,0.813619260390845,1.6744690803038864e-05,0.6793157076643873,0.006505132598257852,0.12778167543739688,2.6255559619172954e-30,0.8136025157000419
147.8,0.8019296957672718,0.8014247455772497,-0.0004043555321264769,0.6687624087375639,0.007732361989083284,0.12533433038272904,5.640288582061858e-30,0.8018291011093762
148.0,0.7884504894394747,0.7879455392494527,-0.0019722028010068504,0.6578466374748159,0.009141806468801339,0.1229292981068423,1.2036034145323988e-29,0.7899177420504595
148.2,0.7765992748932928,0.7760943247032708,-0.0018182263962482903,0.646595919530315,0.010750626516737385,0.1205660050524666,2.5514517421214984e-29,0.7779125510995191
148.4,0.7651342082795172,0.7646292580894951,-0.0012282721158237697,0.6350378575085928,0.01257579273401557,0.11824387996271062,5.373197914360929e-29,0.7658575302053189
148.6,0.7537940038151448,0.7532890536251228,-0.0005070494033210249,0.623200033364235,0.014633715571119948,0.11596235409308885,1.1241890976108089e-28,0.7537961030284438
148.8,0.7429888465283971,0.7424838963383751,0.0007132865819639012,0.6111099145132063,0.01693983382950872,0.11372086141369615,2.3368257360973255e-28,0.7417706097564112
149.0,0.731907487846803,0.731402537656781,0.0015807664997613546,0.5987947639892078,0.019508168366014503,0.1115188388017973,4.826284707437439e-28,0.7298217711570196
149.2,0.7212610696165509,0.7207561194265288,0.002767988770280172,0.5862815549386273,0.022350849492557393,0.10935572622506398,9.904174493777937e-28,0.7179881306562487
149.4,0.710620903339823,0.7101159531498009,0.0038104679718266032,0.5735968897080475,0.025477628554207297,0.1072309669157195,2.019581114735206e-27,0.7063054851779743
149.6,0.6999315065487287,0.6994265563587067,0.004620239094551892,0.5607669237386949,0.028895385989627726,0.10514400753583218,4.092237075445219e-27,0.6948063172641548
149.8,0.6893101150105558,0.6888051648205338,0.005285922312746716,0.5478172944432506,0.03260764973054128,0.1030942983339952,8.240155190531707e-27,0.6835192425077871
150.0,0.6785961742993856,0.6780912241093635,0.005622736628597136,0.5347730552023755,0.03661413898475064,0.10108129329364023,1.648935354989719e-26,0.6724684874807664
150.5,0.6522786161996177,0.6517736660095956,0.005784178258223749,0.5019069839072005,0.04787669035634559,0.09620581348782586,9.091888760172944e-26,0.6459894877513719
151.0,0.626320327305516,0.625815377115494,0.004569311437724766,0.4689614818497172,0.06073658544804331,0.09154799838000874,4.826003279193349e-25,0.6212460656777692
151.5,0.6001290696406412,0.5996241194506191,0.0014620947524851546,0.43626610173599556,0.07479626595613469,0.08709965700600376,2.4676422683505493e-24,0.598162024698134
152.0,0.5757812249317419,0.5752762747417198,-0.0011584098589448866,0.4041154660970236,0.08946644227512382,0.08285277622851733,1.2162162162980763e-23,0.5764346846006647
152.5,0.5529666631600858,0.5524617129700637,-0.003105150572224713,0.3727672429239688,0.10400009157791192,0.07879952904040778,5.781509454965271e-23,0.5555668635422885
153.0,0.5314676353740693,0.5309626851840472,-0.003965129419909119,0.34244124753595756,0.11755428567954009,0.0749322813884587,2.6523844137790476e-22,0.5349278146039563
153.5,0.5098145373198009,0.5093095871297788,-0.004526520899103104,0.313319554091005,0.12927295630004404,0.07124359763783288,1.1750451233812435e-21,0.5138361080288819
154.0,0.4868751425177743,0.48637019232775225,-0.00528251669441171,0.28554748235058514,0.13837898188003872,0.06772624479154012,5.029777871637833e-21,0.49165270902216396
154.5,0.46315352056313014,0.4626485703731081,-0.005221350340831099,0.25923531522110144,0.144261409919465,0.06437319557337275,2.0814594025998996e-20,0.4678699207139392
155.0,0.43838677624833405,0.437881826058312,-0.004300336123082449,0.2344605994442646,0.14654393226022605,0.06117763047690376,8.33213139640187e-20,0.44218216218139444
155.5,0.41260320623818086,0.4120982560481588,-0.0024294691962283843,0.21127088461885343,0.14512390174821063,0.058132938877323105,3.2281447606499595e-19,0.4145277252443872
156.0,0.38480320348751135,0.3842982532974893,-0.0007977130422053835,0.18968676342235768,0.14017648362018187,0.05523271929715515,1.2111389238265555e-18,0.3850959663396947
156.5,0.35617230315827986,0.3556673529682578,0.0013667571918585253,0.16970508733911294,0.13212472952600063,0.0524707789112857,4.402608477024643e-18,0.3543005957763993
157.0,0.32769750579639406,0.327192555606372,0.004467127987079378,0.15130224629456873,0.12158204895347045,0.04984113237125343,1.551415793944942e-17,0.3227254276192926
157.5,0.2982720747182075,0.29776712452818543,0.006714149318622409,0.1344374163218263,0.10927755886429191,0.04733800002344476,5.302384202761888e-17,0.291052975209563
