wavelength,absorbance,absorbance_bk,residual_3gauss,Gauss_1,Gauss_2,Gauss_3,Gauss_4,Gauss_fit
117.0,0.40022266338647977,0.40152024659237295,-0.005195353510692391,3.3519607667810815e-07,1.127322401959212e-56,0.40671526490698867,1.2195305088704555e-117,0.40671560010306534
117.5,0.39707259758148944,0.3983701807873826,-0.0049851228975784645,6.222269544223821e-07,8.547453188994375e-55,0.4033546814580067,4.073741984233608e-115,0.4033553036849611
118.0,0.3937370564276688,0.395034639633562,-0.004459129521932226,1.1330354939356875e-06,5.79802394422143e-53,0.3994926361200003,1.215305402201054e-112,0.3994937691554942
118.5,0.3931241371149429,0.39442172032083606,-0.0007379708702537346,2.024721947855137e-06,3.526943544138565e-51,0.3951576664691419,3.2451848936537704e-110,0.3951596911910898
119.0,0.3880201338223573,0.38931771702825047,-0.0010649138925427626,3.552159680335868e-06,1.928363049720174e-49,0.3903790787611129,7.773282484939651e-108,0.3903826309207932
119.5,0.3851312206085504,0.38642880381444356,0.0012359588659107135,6.120664680862632e-06,9.497823575098007e-48,0.385186724283852,1.673816097167931e-105,0.38519284494853284
120.0,0.38114374195203454,0.3824413251579277,0.0028201754718735206,1.0362234089113721e-05,4.223328778850521e-46,0.3796107874519651,3.2468004513792867e-103,0.3796211496860542
120.5,0.37471384929680074,0.3760114325026939,0.002312602446371881,1.7243387872331934e-05,1.6990633012234928e-44,0.3736815866684497,5.685044156156393e-101,0.37369883005632204
121.0,0.37051783339069194,0.3718154165965851,0.004357813642380692,2.8214214670783646e-05,6.197191984080238e-43,0.3674293887395336,9.003437701636033e-99,0.36745760295420443
121.5,0.3633760118563892,0.36467359506228236,0.0037439480773737155,4.5409581179353095e-05,2.0535106313328144e-41,0.36088423740372927,1.2921878157861902e-96,0.36092964698490865
122.0,0.35599778106175217,0.35729536426764535,0.003147653601930811,7.191433751791045e-05,6.194140611211893e-40,0.35407579632819663,1.6838881747438075e-94,0.35414771066571454
122.5,0.34968272040866694,0.3509803036145601,0.003834992486370592,0.00011210439286124708,1.7040913757185245e-38,0.3470332067353283,1.9960909775098235e-92,0.3471453111281895
123.0,0.3415983824513882,0.34289596565728137,0.0029389316564754076,0.00017207435011180517,4.284090896199164e-37,0.33978495965069416,2.156344279122243e-90,0.33995703400080596
123.5,0.3330246938064721,0.3343222770123653,0.0017033348370290025,0.0002601595648814613,9.860203419924933e-36,0.3323587826104548,2.1266708319893126e-88,0.3326189421753363
124.0,0.32514400909407465,0.32644159229996783,0.001272496108919663,0.0003875556590734901,2.0814382774784123e-34,0.32478154053197467,1.9181542676919365e-86,0.32516909619104817
124.5,0.3164868348780101,0.3177844180839033,0.00013623634561032993,0.0005690314030614117,4.037038096054668e-33,0.31707915033523154,1.5849221966701743e-84,0.31764818173829296
125.0,0.3075440873258278,0.30884167053172096,-0.0012585596639928531,0.0008237213914532728,7.206718727605795e-32,0.30927650880426055,1.2017037275388525e-82,0.3101002301957138
125.5,0.29815586696715624,0.2994534501730494,-0.003119956160582693,0.0011759732372921615,1.1861087356317747e-30,0.30139743309633993,8.374521946825805e-81,0.3025734063336321
126.0,0.29126128026419607,0.29255886347008925,-0.002561960346183112,0.001656210575179836,1.802784858996317e-29,0.2934646132410925,5.37264974216569e-79,0.29512082381627236
126.5,0.28407953371423666,0.28537711692012985,-0.002424217825340469,0.002301758824442924,2.534544423621239e-28,0.28549957592102737,3.1780494838102123e-77,0.2878013347454703
127.0,0.2760699422483082,0.2773675254542014,-0.003312699933517793,0.003157566599606231,3.301269352736473e-27,0.27752265878811294,1.7359592257573294e-75,0.2806802253877192
127.5,0.26977764974969737,0.27107523295559055,-0.0027545049410258593,0.004276743350003086,3.989883285680374e-26,0.2695529945466133,8.7694828554715e-74,0.2738297378966164
128.0,0.26302376818413686,0.26432135139003005,-0.0030079775764934036,0.005720824947195604,4.4812153451679235e-25,0.26160850401932784,4.102976228373501e-72,0.26732932896652345
128.5,0.2581753252796939,0.2594729084855871,-0.0017926641769707707,0.007559675251130697,4.6841575801816876e-24,0.25370589741142713,1.7804753653529407e-70,0.26126557266255784
129.0,0.2537348405589243,0.2550324237648175,-0.000699193991798297,0.009870934764682149,4.563486051433619e-23,0.24586068299193364,7.176175634353132e-69,0.2557316177566158
129.5,0.24905868710274304,0.2503562703086362,-0.0004698506855094764,0.012738938567610485,4.149608937415113e-22,0.23808718242653523,2.6900821383912586e-67,0.2508261209941457
130.0,0.2463410165338728,0.24763859973976599,0.0009870022471220596,0.01625304547706423,3.526671508689007e-21,0.2303985520155797,9.391524525000257e-66,0.24665159749264393
130.5,0.2435579004367876,0.24485548364268078,0.00154332578305319,0.020505348742823115,2.805170622688096e-20,0.22280680911680448,3.057561008578084e-64,0.2433121578596276
131.0,0.24206539050386,0.24336297370975318,0.0024523360248436543,0.025587774622324873,2.0910586137080012e-19,0.21532286306258466,9.294821769116894e-63,0.24091063768490953
131.5,0.2407802775330267,0.24207786073891988,0.0025326937534907445,0.03158861707014604,1.4626805832620227e-18,0.2079565499152831,2.641682581081532e-61,0.23954516698542913
132.0,0.241134051760894,0.24243163496678719,0.003126362659364418,0.03858860186655012,9.613038202690896e-18,0.20071667044087266,7.027957880214926e-60,0.23930527230742277
132.5,0.24210421620952008,0.24340179941541326,0.003134150211188985,0.04665661848469602,5.943459962687811e-17,0.1936110307195282,1.7523094517335817e-58,0.24026764920422428
133.0,0.24429577590325485,0.24559335910914804,0.0031015751202550235,0.05584529913716875,3.4610950630636895e-16,0.18664648485172392,4.0995756793192133e-57,0.242491783988893
133.5,0.24723858945783656,0.24853617266372974,0.0025205354481014075,0.06618665795674529,1.9006402163020694e-15,0.17982897925888114,9.0098211189425e-56,0.24601563721562833
134.0,0.25156143862095226,0.25285902182684544,0.002007398054870546,0.07768802565372772,9.853808959407532e-15,0.17316359811823734,1.862236918646986e-54,0.2508516237719749
134.5,0.2571371628198483,0.25843474602574146,0.0014516131039953861,0.09032852340977515,4.828598034597571e-14,0.16665460951192262,3.6239102515741086e-53,0.25698313292174607
135.0,0.26347351461129304,0.2647710978171862,0.00040927355713726854,0.10405631235005043,2.2389015196599968e-13,0.16030551190977463,6.646852375872386e-52,0.26436182426004895
135.5,0.27134024850373206,0.27263783170962524,-0.00026807996513872334,0.11878683102984472,9.833769240475557e-13,0.15411908064393587,1.1503061747768185e-50,0.27290591167476397
136.0,0.28014892572694355,0.28144650893283674,-0.0010530988081393078,0.13440219366647857,4.095813336006027e-12,0.14809741407040164,1.8802820098180847e-49,0.28249960774097604
136.5,0.2900364910684068,0.29133407427429997,-0.0016597732553201294,0.15075186836517188,1.6193833581433858e-11,0.1422419791482544,2.905954175641193e-48,0.2929938475296201
137.0,0.3010564695952558,0.30235405280114896,-0.0018542940123373874,0.16765469055150387,6.084056823140464e-11,0.13655365620114193,4.250557458557906e-47,0.30420834681348635
137.5,0.3131852589885023,0.3144828421943955,-0.0014521370816209522,0.18490219640110653,2.1742340845481612e-10,0.13103278265748647,5.890073789024658e-46,0.31593497927601644
138.0,0.3264219771339668,0.32771956033986,-0.0002228250111171448,0.20226318901528975,7.398012422641186e-10,0.12567919559588614,7.739823915164374e-45,0.32794238535097714
138.5,0.3389803007243109,0.3402778839302041,0.00029622719155109056,0.21948938138950666,2.3990368053071365e-09,0.12049227295010956,9.653534215782911e-44,0.339981656738653
139.0,0.3520120904396056,0.35330967364549876,0.001516793375311909,0.23632189959488872,7.421309805989588e-09,0.11547097325398831,1.1438991839694158e-42,0.35179288027018685
139.5,0.36338052930830766,0.36467811251420085,0.0015658356042321797,0.2524983811593156,2.1920286665297752e-08,0.1106138738303664,1.2889276894323383e-41,0.36311227690996867
140.0,0.3738342127152816,0.3751317959211748,0.0014521561279868256,0.26776037056657764,6.187651620340532e-08,0.10591920735009412,1.3822741436735082e-40,0.37367963979318797
140.5,0.3824978878979367,0.3837954711038299,0.000549709240765639,0.28186069808428255,1.670718525701649e-07,0.10138489670692913,1.4120902200866425e-39,0.38324576186306425
141.0,0.3892999362861588,0.39059751949205196,-0.000982031028811503,0.29457053047727866,4.3187144126993114e-07,0.09700858817214351,1.3753197524738297e-38,0.39157955052086346
141.5,0.395306465272746,0.39660404847863917,-0.0018705059474202756,0.3056858019525604,1.0696647490032433e-06,0.09278768280875006,1.2781474116240375e-37,0.39847455442605945
142.0,0.3995277666541392,0.4008253498600324,-0.0029293260278234756,0.31503276910561934,2.540642621339888e-06,0.08871936613961517,1.1343580784595108e-36,0.40375467588785585
142.5,0.40314970784648646,0.40444729105237964,-0.002831618475400921,0.3224724818921117,5.7915592749807685e-06,0.0848006360763939,9.621888399078272e-36,0.40727890952778056
143.0,0.405802985616544,0.40710056882243717,-0.0018444613921457242,0.3279040202012244,1.2680885997787288e-05,0.08102832912736073,7.806449274206453e-35,0.4089450302145829
143.5,0.40617303554981826,0.40747061875571144,-0.0012216244453176484,0.3312664085112091,2.6689778001408846e-05,0.07739914491181858,6.062689792156402e-34,0.4086922432010291
144.0,0.40448200865881984,0.405779591864713,-0.0007233022829285507,0.3325391853187984,5.4039811775385934e-05,0.0739096690170678,4.510500361524853e-33,0.40650289414764157
144.5,0.40074101179845534,0.4020385950043485,-0.00036480213489326063,0.33174166571200964,0.0001053371863403507,0.07055639424089175,3.2170239361119806e-32,0.4024033971392418
145.0,0.3952636511188762,0.39656123432476936,9.668403228063616e-05,0.32893099121951175,0.0001978188046150682,0.06733574026836195,2.201255537687343e-31,0.3964645502924887
145.5,0.388148123135524,0.3894457063414172,0.0006443606488517606,0.32419910819614756,0.0003581656599014336,0.0642440718365164,1.4460507900850336e-30,0.3888013456925654
146.0,0.37942151106548105,0.38071909427137424,0.001146868138921231,0.3176688525541274,0.0006256581340760592,0.06127771544424952,9.12636668504608e-30,0.379572226132453
146.5,0.3692235304467452,0.3705211136526384,0.0015436139746377031,0.30948934352191276,0.0010551814884309546,0.05843297466765696,5.537479180037675e-29,0.3689774996780007
147.0,0.35695839099611354,0.3582559742020067,0.0009996413607992194,0.2998309020310056,0.0017192866670251617,0.055706144143176754,3.2323544121106032e-28,0.3572563328412075
147.5,0.3438140516322753,0.3451116348381685,0.0004301516287910645,0.28887971076908914,0.002708250158017093,0.05309352228227121,1.816376160072801e-27,0.3446814832093774
148.0,0.33011295747195285,0.33141054067784603,-0.00014027474002153983,0.27683242400323904,0.004126968632472982,0.050591422782155566,9.832283596716768e-27,0.3315508154178676
148.5,0.3167304974766326,0.3180280806825258,-0.00014671042341113383,0.26389091756041544,0.006087688548239484,0.04819618499728201,5.1302825199237363e-26,0.31817479110593694
149.0,0.30463816044462955,0.30593574365052273,0.001076122982211769,0.2502573447663949,0.008698092665898487,0.045904183236017596,2.5818899783328397e-25,0.30485962066831096
149.5,0.292402614691559,0.29370019789745216,0.0018135810327502,0.2361296347584007,0.012045147060061002,0.04371183504624028,1.2540357712602121e-24,0.29188661686470196
150.0,0.2808300622646788,0.282127645470572,0.0026382609424012715,0.22169753747754112,0.01617623849810417,0.04161560855252545,5.8819190844424e-24,0.27948938452817074
150.5,0.2693321624872369,0.2706297456931301,0.002798163498347217,0.20713928676786578,0.021080266520707158,0.039612028906209955,2.6657621155871384e-23,0.26783158219478287
151.0,0.25774000196403,0.2590375851699232,0.0020487993510057145,0.19261892108797599,0.026672180822940886,0.03769768390800063,1.1680689428915443e-22,0.2569887858189175
151.5,0.246568370478062,0.24786595368395517,0.0009277933307302866,0.178284271810454,0.0327846596818228,0.03586922886094809,4.951161974102142e-22,0.24693816035322488
152.0,0.23632786688387653,0.2376254500897697,6.645268039812136e-05,0.1642656030389052,0.03917000366087358,0.034123390709592805,2.031325941052658e-21,0.2375589974093716
152.5,0.22664322873686127,0.22794081194275445,-0.0007048866089329753,0.15067486505786887,0.04551386197486543,0.03245697151895312,8.070931924957477e-21,0.22864569855168743
153.0,0.21752661641835608,0.21882419962424926,-0.0011085018495150811,0.13760550635551136,0.051460343773481874,0.03086685134477111,3.107225112612765e-20,0.21993270147376434
153.5,0.20814329323153824,0.20944087643743142,-0.0016877126789812957,0.12513277672585751,0.05664582184642946,0.02934999054412574,1.1597270687013457e-19,0.21112858911641272
154.0,0.199030489298523,0.20032807250441617,-0.00162664292244033,0.11331444610822398,0.0607368377454699,0.027903431573162607,4.198535027418513e-19,0.2019547154268565
154.5,0.1889126662165308,0.19021024942242398,-0.0019723541269395517,0.10219186019120531,0.06346644304184784,0.026524300316310395,1.4750930873954795e-18,0.19218260354936353
155.0,0.1781086503379359,0.1794062335438291,-0.002258179451841147,0.09179125388068889,0.06466335212600216,0.025209806988979212,5.031963129075076e-18,0.18166441299567024
155.5,0.16756569026916168,0.16886327347505486,-0.0014886741597251452,0.08212524689352418,0.06426945408788258,0.023957246653373204,1.667495278016749e-17,0.17035194763478
156.0,0.15614794044798946,0.15744552365388265,-0.0008561983363354897,0.07319445133307817,0.06234327127241724,0.022763999384722677,5.3704392941521345e-17,0.15830172199021814
156.5,0.14444796721179207,0.14574555041768525,7.949897884029777e-05,0.06498912847065527,0.05904939284523284,0.021627530122956668,1.681814743222109e-16,0.14566605143884495
157.0,0.13320270773141696,0.13450029093731014,0.0018278486400487848,0.057490840472114356,0.05463621358253667,0.020545388242609836,5.123550731476277e-16,0.13267244229726136
157.5,0.1203914510544552,0.12168903426034838,0.0020937731084536976,0.050674051906599966,0.04940600237369995,0.019515206871593246,1.5190995382603886e-15,0.11959526115189469
158.0,0.1085391990056537,0.10983678221154689,0.00311231038085788,0.044507645066818174,0.0436821247765012,0.018534701987365242,4.38548805034864e-15,0.106724471830689
158.5,0.09660441346600952,0.0979019966719027,0.0035659087740390616,0.03895632201823422,0.03777809456259119,0.017601671317025894,1.233266283728758e-14,0.09433608789786364
159.0,0.08486126751753117,0.08615885072342436,0.003490792947321117,0.03398187456911939,0.03197219014103125,0.0167139930659188,3.379794636585212e-14,0.08266805777610324
159.5,0.0733787788893262,0.07467636209521938,0.0027724799917675097,0.029544310793901962,0.02648994681198149,0.015869624497478113,9.030301458964951e-14,0.07190388210345187
160.0,0.0622801041182944,0.06357768732418759,0.0014129757354452294,0.02560283320902482,0.02149527799419174,0.01506660038529047,2.353278588271186e-13,0.06216471158874236
160.5,0.05193069418098755,0.05322827738688073,-0.0002810238773012022,0.02211666912515792,0.017089600781762065,0.014303031356663566,5.983854990102115e-13,0.053509301264181935
161.0,0.042990312264075625,0.04428789546996881,-0.0016523196184595607,0.019045758073454152,0.013317354868084014,0.013577102145404953,1.4852505320712499e-12,0.04594021508842837
161.5,0.03502317538266682,0.03632075858856,-0.003093411269790916,0.01635130456534513,0.010175795519400668,0.012887069770005139,3.599983779285201e-12,0.03941416985835092
162.0,0.02815752629731853,0.029455109503211716,-0.0043992428048428775,0.013996206869588915,0.007626883777935515,0.012231261652006,8.524163127487473e-12,0.03385435230805459
162.5,0.021841461381218376,0.02313904458711156,-0.006023787528731037,0.011945374075490064,0.005609384332631199,0.011608073687996264,1.9725071648093306e-11,0.0291628321158426
163.0,0.017349889760508164,0.01864747296640135,-0.006584211552559654,0.010165944570623775,0.004049771616288111,0.011015968287425643,4.462347632204783e-11,0.025231684518961003
163.5,0.01395217596217976,0.015249759168072944,-0.006702231522860645,0.00862741931410657,0.0028710988908411178,0.010453472387256685,9.872921517828549e-11,0.02195199069093359
164.0,0.010604451352593226,0.01190203455848641,-0.0073183585752393514,0.007301723050872458,0.00199949441576936,0.00991917545337527,2.1370867596695402e-10,0.019220393133725762
164.5,0.008112281467628057,0.009409864673521241,-0.007533415447805591,0.006163206001008853,0.0013683461899165362,0.009411727477663615,4.5273782955735263e-10,0.016943280121326832
165.0,0.006272771847861684,0.007570355053754869,-0.007468576924451987,0.005188597673769425,0.0009204963867393648,0.008929836978686642,9.390114220192454e-10,0.015038931978206856
165.5,0.004886675058648279,0.006184258264541463,-0.0072538309708100514,0.004356923389298362,0.0006088949255833385,0.008472269013064027,1.907405787287826e-09,0.013438089235351515
166.0,0.003866813262237527,0.005164396468130711,-0.006919028419649529,0.0036493929199940076,0.0003961849681485749,0.00803784320378328,3.795854376914535e-09,0.01208342488778024
166.5,0.0029447084591046,0.004242291664997785,-0.00668606274570396,0.003049269451975315,0.00025364576466702023,0.007625431790956504,7.403102905333395e-09,0.010928354410701745
167.0,0.002097462138154188,0.0033950453440473724,-0.006540485693216361,0.0025417258663443672,0.00015983330651205764,0.007233957709829478,1.4154577829919891e-08,0.009935531037263733
167.5,0.0015549437721196725,0.0028525269780128567,-0.006222749659870286,0.00211369418874839,9.916320912486833e-05,0.006862392700211837,2.6539798045929167e-08,0.009075276637883142
168.0,0.0011196869630171777,0.0024172701689103623,-0.0059068381475100625,0.0017537129821189284,6.059106851657171e-05,0.006509755450913212,4.881487171313581e-08,0.008324108316420425
168.5,0.0005989718110966645,0.0018965550169898488,-0.00576689223528994,0.0014517764799058838,3.647288637217235e-05,0.006175109782232416,8.810376931744411e-08,0.007663447252279789
169.0,0.0004029554461334944,0.0017005386520266789,-0.005378003917072361,0.0011991883862077152,2.163523058711569e-05,0.0058575628690583975,1.5608324581175717e-07,0.00707854256909904
169.5,-0.0001704716133014811,0.0011271115925917032,-0.005430496397834464,0.0009884225090433553,1.2650476479122057e-05,0.0055562635066959175,2.7149820777269297e-07,0.006557607990426167
170.0,-0.00031514981114612203,0.0009824333947470623,-0.005108715960070323,0.0008129917427047663,7.293366427028782e-06,0.005270400421123077,4.6382456251371983e-07,0.006091149354817386
170.5,-0.0005499287658143129,0.0007476544400788715,-0.004923798125485587,0.0006673263699997594,4.147100911276158e-06,0.004999200625022892,7.784696305313932e-07,0.0056714525655644586
171.0,-0.00012917772738386187,0.0011684054785093224,-0.004123794861151916,0.0005466622079215821,2.3263446226810314e-06,0.004741927820598531,1.2839665184450108e-06,0.005292200339661239
171.5,-0.0004144294194899084,0.000883153786403276,-0.004065035240013716,0.0004469387618539711,1.2877504588820595e-06,0.004497880849885063,2.0816642190763687e-06,0.004948189026416992
172.0,-0.0003767355735074625,0.0009208476323857219,-0.0037142738632508446,0.00036470727389916927,7.036081219632716e-07,0.00426639219300265,3.318420612783584e-06,0.004635121495636566
172.5,-0.0012975832058931844,0.0,-0.004349457164509626,0.0002970483400616957,3.795619395435617e-07,0.00404682651455766,5.202747950725538e-06,0.004349457164509626
173.0,-0.0009712387321910717,0.0003263444737021127,-0.003761960325031451,0.00024149861875301146,2.022070839820539e-07,0.0038385792581856855,8.024714710884547e-06,0.004088304798733564
173.5,-0.0007436782672702349,0.0005539049386229495,-0.0032954424595825543,0.0001959860498262231,1.0640921107503225e-07,0.0036410752890417264,1.2179650126478891e-05,0.0038493473982055037
174.0,-0.0010014623747082562,0.00029612083118492815,-0.0033346703302660824,0.00015877294026395492,5.5326928026564535e-08,0.0034537675838774585,1.8195310381570795e-05,0.0036307911614510105
