wavelength,absorbance,absorbance_bk,residual_3gauss,Gauss_1,Gauss_2,Gauss_3,Gauss_4,Gauss_fit
117.0,0.8899776829414406,0.8873686813982445,-0.008009901974200928,1.052854366270305e-06,8.67288122536205e-59,0.8953775305180792,3.9931448041336733e-131,0.8953785833724455
117.5,0.8823777701567865,0.8797687686135904,-0.008465931130330118,1.925925789112277e-06,8.051922131580367e-57,0.8882327738181315,2.701725850895181e-128,0.8882346997439206
118.0,0.8795316826592867,0.8769226811160906,-0.003057920642861922,3.457297956513947e-06,6.652029309131576e-55,0.8799771444609961,1.6101316721524478e-125,0.8799806017589525
118.5,0.8682124108575096,0.8656034093143135,-0.005075351410455453,6.093103691016428e-06,4.90227126098887e-53,0.8706726676210779,8.473546449533258e-123,0.8706787607247689
119.0,0.8601773233134602,0.8575683217702641,-0.002825371479538319,1.0546759808896012e-05,3.230532666029137e-51,0.8603831464899935,3.947459409918318e-120,0.8603936932498024
119.5,0.8577175580089226,0.8551085564657265,0.00591694965554912,1.7936940105165348e-05,1.9081173521836838e-49,0.8491736698700721,1.6317719927231625e-117,0.8491916068101774
120.0,0.8423104374442566,0.8397014359010605,0.0025613068610760292,2.9984204856587673e-05,1.012480983038403e-47,0.8371101448351279,5.999398903606256e-115,0.8371401290399845
120.5,0.8308530887818752,0.8282440872386791,0.003935945562309917,4.92848831151586e-05,4.837188686057612e-46,0.8242588567932541,1.9663309662685429e-112,0.8243081416763692
121.0,0.8175673179188612,0.8149583163756651,0.004192573773790675,7.968384213885198e-05,2.085328478640886e-44,0.8106860587597355,5.758082670042833e-110,0.8107657426018744
121.5,0.807473838239745,0.8048648366965488,0.008280475465861192,0.0001267700770734941,8.129431292507838e-43,0.7964575911536141,1.5098074635001576e-107,0.7965843612306877
122.0,0.7917959266743754,0.7891869251311793,0.00734987219299954,0.00019851996568948736,2.871822885748677e-41,0.7816385329724902,3.552355408852662e-105,0.7818370529381797
122.5,0.7719293593145783,0.7693203577713822,0.0027213612029870493,0.0003061117889322088,9.211994064864996e-40,0.7662928847794629,7.515718806638242e-103,0.7665989965683951
123.0,0.7574760528709453,0.7548670513277492,0.003918836886833477,0.00046493088578456983,2.6885280853227806e-38,0.7504832835551312,1.4327547805072514e-100,0.7509482144409158
123.5,0.7410955945759814,0.7384865930327853,0.0035200671210720014,0.0006957767845347767,7.15298136237542e-37,0.7342707491271785,2.4659755843451707e-98,0.7349665259117133
124.0,0.7203948590781983,0.7177858575350022,-0.0009548752293501162,0.001026271174168116,1.7381954299610258e-35,0.7177144615901843,3.839462668862786e-96,0.7187407327643524
124.5,0.7025120627859539,0.6999030612427578,-0.002460955909342366,0.0014924482839234364,3.865073557953441e-34,0.7008715688681767,5.418105613740994e-94,0.7023640171521002
125.0,0.6850309835507782,0.6824219820075821,-0.0035155285489154586,0.002140487205346953,7.878707186823993e-33,0.6837970233511506,6.942761180847408e-92,0.6859375105564975
125.5,0.6659561249996753,0.6633471234564792,-0.006224842477913883,0.0030285195820590255,1.4749007023469165e-31,0.666543446352334,8.093184201432816e-90,0.669571965934393
126.0,0.6498446766314471,0.647235675088251,-0.006153761149411907,0.004228417253974737,2.540016144444335e-30,0.6491610189836882,8.597783304971554e-88,0.6533894362376629
126.5,0.633747068172047,0.6311380666288509,-0.006386766241562425,0.005827434939840131,4.031014784265191e-29,0.6316973979305731,8.3386172585886e-86,0.6375248328704133
127.0,0.6186464513350917,0.6160374497918956,-0.006089760335164507,0.007929555606830048,5.9049796014217785e-28,0.61419765452023,7.3958186696256125e-84,0.6221272101270601
127.5,0.604470896652626,0.6018618951094299,-0.005498704365535567,0.010656364054702121,7.997501575874042e-27,0.5967042354202633,6.008849566839021e-82,0.6073605994749655
128.0,0.5923858053833229,0.5897768038401268,-0.0036274003674086064,0.014147260937721139,1.0030264080148798e-25,0.5792569432698143,4.479420773973702e-80,0.5934042042075354
128.5,0.5815150653360168,0.5789060637928207,-0.0015457001150688265,0.018558828372689608,1.1667221064321419e-24,0.5618929355351999,3.0688468077490163e-78,0.5804517639078896
129.0,0.5706253619216692,0.5680163603784731,-0.000693551860564634,0.024063172348542685,1.2606065748969584e-23,0.5446467398904951,1.9352358782900783e-76,0.5687099122390378
129.5,0.562246152407971,0.559637150864775,0.0012417680680120169,0.03084509834710038,1.2670517364426788e-22,0.5275502844496626,1.1250349072482898e-74,0.5583953827967629
130.0,0.5565004141353873,0.5538914125921912,0.00416044580403907,0.0390980255705294,1.1864329200388288e-21,0.5106329412176227,6.038448987363163e-73,0.5497309667881521
130.5,0.551268375111425,0.5486593735682289,0.005719181395443251,0.04901861099184181,1.0364389433244281e-20,0.4939215811809438,2.9967620235139585e-71,0.5429401921727857
131.0,0.5479327515566447,0.5453237500134486,0.007082976127750662,0.060800134363290445,8.458632194201848e-20,0.4774406395224075,1.3771246499638588e-69,0.5382407738856979
131.5,0.5460639000588633,0.5434548985156672,0.0076179241595251135,0.07462478484069937,6.458081472217828e-19,0.4612121895154427,5.868160128737313e-68,0.5358369743561421
132.0,0.5467069461317919,0.5440979445885958,0.008186837870289954,0.09065508298570481,4.618831772003093e-18,0.4452560237326011,2.3218765786807917e-66,0.5359111067183059
132.5,0.5493146041898558,0.5467056026466597,0.008091099901654464,0.10902476146000722,3.098502312789014e-17,0.429589741284998,8.542264973552212e-65,0.5386145027450052
133.0,0.5541078170952921,0.551498815552096,0.007440469584923282,0.12982950607161597,1.952163533761005e-16,0.41422883989555653,2.9260365330554913e-63,0.5440583459671727
133.5,0.5612137851599455,0.5586047836167494,0.006299953425500937,0.15311801849467957,1.1565569382250491e-15,0.39918681169656767,9.343797178187332e-62,0.5523048301912484
134.0,0.5708216549954828,0.5682126534522867,0.004853515325025315,0.17888389639700714,6.4511102422166975e-15,0.3844752417302478,2.785201016907633e-60,0.5633591381272613
134.5,0.5830889350562892,0.5804799335130931,0.0033171943789325198,0.20705883091542063,3.391855918187131e-14,0.3701039082187061,7.759260841198625e-59,0.5771627391341606
135.0,0.5969360433199842,0.5943270417767881,0.000738565379209466,0.237507592641421,1.6829981686101112e-13,0.3560808837559893,2.022762630529e-57,0.5935884763975786
135.5,0.6135703764658471,0.610961374922651,-0.0014764770393931315,0.27002521530221224,7.889877590198493e-13,0.34241263665904287,4.9402568961202545e-56,0.6124378519620441
136.0,0.6328177343191679,0.6302087327759718,-0.0032320926570514885,0.30433669363379195,3.4985155436899373e-12,0.3291041317957328,1.1317301781923692e-54,0.6334408254330233
136.5,0.6544638035612087,0.6518548020180126,-0.004403521902335283,0.3400993936195488,1.4689281589940074e-11,0.3161589302861098,2.4345763754485163e-53,0.6562583239203479
137.0,0.6787726456015328,0.6761636440583367,-0.0043238801517443415,0.3769082366041852,5.846376484725309e-11,0.3035792875474321,4.923561466710052e-52,0.6804875242100811
137.5,0.7053169703766092,0.7027079688334131,-0.002961853328272146,0.4143035727171256,2.2079994690106085e-10,0.2913662492237597,9.371071342578984e-51,0.7056698221616853
138.0,0.7327257539596549,0.7301167524164588,-0.0011845063553831414,0.45178151337269246,7.921073704247476e-10,0.27951974460704204,1.6804356689739719e-49,0.7313012587718419
138.5,0.7601254710886192,0.7575164695454231,0.0006714323759523522,0.4888063572491731,2.701964669085671e-09,0.26803867721833297,2.842083001655984e-48,0.7568450371694707
139.0,0.7875010725586382,0.7848920710154421,0.0031464217368071257,0.5248246282312313,8.772316919916248e-09,0.25692101227508674,4.538205037345956e-47,0.781745649278635
139.5,0.8106928068243378,0.8080838052811417,0.0026397623314934338,0.5592801549926784,2.7133612563782908e-08,0.24616386082335728,6.84865458455251e-46,0.8054440429496482
140.0,0.8322924558062376,0.8296834542630415,0.0022902480750522924,0.5916295657925379,8.003326327693376e-08,0.23576356036218804,9.777610731353925e-45,0.8273932061879892
140.5,0.8500623514266534,0.8474533498834573,0.00037982093542832107,0.6213575517933606,2.2532298175733697e-07,0.22571575183168668,1.3218754191915361e-43,0.847073528948029
141.0,0.8642653992181819,0.8616563976749858,-0.002350929556634407,0.6479912683078429,6.060475343456526e-07,0.21601545287624285,1.6939251509918693e-42,0.8640073272316202
141.5,0.8753331273178065,0.8727241257746104,-0.005047854057618317,0.6711132938102572,1.558691637139274e-06,0.20665712733033448,2.0594499068330486e-41,0.8777719798322288
142.0,0.8844540976652627,0.8818450961220666,-0.006166138379043895,0.6903726470149896,3.836579635702746e-06,0.19763475090648533,2.3777215858984726e-40,0.8880112345011105
142.5,0.8910617026469208,0.8884527011037247,-0.005991684121784635,0.7054934667029626,9.045429197331171e-06,0.1889418730933493,2.6092466033050145e-39,0.8944443852255093
143.0,0.8944681938497603,0.8918591923065642,-0.0050140074457204475,0.7162810798845887,2.044457074578637e-05,0.1805716752969502,2.723940251842337e-38,0.8968731997522846
143.5,0.8946370092007686,0.8920280076575725,-0.003158665875721778,0.7226253133054104,4.4334948107573346e-05,0.17251702527977633,2.707602128164998e-37,0.8951866735332943
144.0,0.8904445263452302,0.8878355248020341,-0.0015283534570447177,0.7245010331928904,9.2317094969759e-05,0.16477052797121874,2.5647564170130982e-36,0.8893638782590788
144.5,0.881079982269781,0.8784709807265849,-0.0010043386329273707,0.7219660210330013,0.00018472558781758145,0.15732457273869338,2.3170929708985094e-35,0.8794753193595123
145.0,0.8688468245808326,0.8662378230376365,0.0005545630291106107,0.7151564026078935,0.00035548017849023266,0.15017137722214227,1.998167605132544e-34,0.8656832600085259
145.5,0.8527996852328894,0.8501906836896933,0.001949340154997703,0.7042799384596192,0.0006583772295411024,0.14330302784553522,1.6461132850697952e-33,0.8482413435346956
146.0,0.8331712287249327,0.8305622271817366,0.0030687291574903464,0.6896075529028914,0.0011744279935892662,0.1367115171277655,1.296487789281903e-32,0.8274934980242462
146.5,0.8099039290972813,0.8072949275540852,0.0034234001631368027,0.6714635238914115,0.0020192255773843395,0.13038877792215253,9.769966293416802e-32,0.8038715273909484
147.0,0.7836147783840862,0.7810057768408901,0.0031157214928572152,0.6502147772539535,0.003348563375299395,0.12432671471877998,7.04956390627693e-31,0.7778900553480329
147.5,0.7540578267451022,0.7514488252019061,0.0013120520900365973,0.6262597273049906,0.005359813659517177,0.11851723214736172,4.874144126491859e-30,0.7501367731118695
148.0,0.7238940809983558,0.7212850794551597,2.9550433825353828e-05,0.6000170840382439,0.008286184162738321,0.11295226082035213,3.2316005363813555e-29,0.7212555290213344
148.5,0.6945594009960758,0.6919503994528797,3.0387096608297526e-05,0.5719150083589681,0.012381223340512853,0.1076237806567905,2.0560347159368428e-28,0.6919200123562714
149.0,0.6686343221882726,0.6660253206450765,0.0032284369330769502,0.5423809449994172,0.017892096885508028,0.10252384182707416,1.2561488534002347e-27,0.6627968837119995
149.5,0.6423447474075821,0.639735745864386,0.005236494391217872,0.5118324020398505,0.025022265975757033,0.0976445834575606,7.374767886827437e-27,0.6344992514731681
150.0,0.6167882515959935,0.6141792500527974,0.006645109131520721,0.4806688804354192,0.0338870102540221,0.09297825023183541,4.1633726323175444e-26,0.6075341409212767
150.5,0.5915316183400914,0.5889226167968953,0.006672151680423677,0.44926509045449986,0.044468167639304224,0.08851720702266754,2.2616192578169084e-25,0.5822504651164716
151.0,0.5664815111966388,0.5638725096534427,0.005076349842424777,0.4179655278227219,0.05657668030298146,0.0842539516853146,1.1829141451192019e-24,0.5587961598110179
151.5,0.5422944137886004,0.5396854122454043,0.0025916699113796016,0.3870804233929295,0.06983219280212746,0.08018112613896779,5.961059567034798e-24,0.5370937423340247
152.0,0.5191198771975297,0.5165108756543336,-0.0003311426894501146,0.35688302840712344,0.0836674640777975,0.07629152585886276,2.896023255127613e-23,0.5168420183437837
152.5,0.4974006385196525,0.4947916369764564,-0.0027563004619424736,0.32760815427649664,0.09736167526487324,0.07257810789702898,1.3572372893738221e-22,0.49754793743839887
153.0,0.4775758311243443,0.4749668295811482,-0.003620450380907636,0.29945185201528596,0.11010143040194471,0.06903399754482518,6.139691602967746e-22,0.47858727996205586
153.5,0.45782561630898666,0.45521661476579056,-0.00407047515064618,0.2725720921665895,0.12106250400440119,0.06565249374544604,2.6824486911178578e-21,0.45928708991643674
154.0,0.43682592867209974,0.43421692712890364,-0.0048010374008036205,0.24709029089344706,0.1295006002767628,0.062427073359497445,1.1325639076904576e-20,0.43901796452970726
154.5,0.4147757881486441,0.412166786605448,-0.005114951598478967,0.22309352111947817,0.13483682270286243,0.059351394381586355,4.623684042233573e-20,0.41728173820392694
155.0,0.3922431344297396,0.3896341328865435,-0.0041463609519726274,0.20063724814616235,0.13672394749163236,0.056419298200721446,1.8262107777022585e-19,0.39378049383851615
155.5,0.3682866204791343,0.3656776189359382,-0.002778551071907831,0.17974843582384875,0.1350829231918132,0.05362481099218406,6.9821588416262425e-19,0.36845617000784603
156.0,0.3430830235963486,0.3404740220531525,-0.0010214982376770543,0.16042888080412565,0.1301044951632438,0.050962144323460114,2.5854671656533515e-18,0.3414955202908296
156.5,0.3168789096866493,0.3142699081434532,0.0009683977978610092,0.14265864734691752,0.12221716794683557,0.04842569505183908,9.277457310199362e-18,0.31330151034559217
157.0,0.2912041401439298,0.2885951386007337,0.004157180249009684,0.12639949236079462,0.1120284214045094,0.046010044586419954,3.2276432833904143e-17,0.28443795835172403
157.5,0.26477749085140734,0.26216848930821124,0.006610346784495291,0.11159818870363411,0.10024999623755565,0.04370995758252609,1.0892577020498069e-16,0.25555814252371595
158.0,0.2383640270114124,0.23575502546821628,0.008425457076590509,0.0981896733012803,0.08761951495840167,0.04152038013194345,3.567649737698933e-16,0.22732956839162577
158.5,0.21194440773638165,0.20933540619318552,0.008969297747242644,0.08609996456511577,0.07482970637284667,0.039436437507979295,1.1346299633808798e-15,0.20036610844594288
159.0,0.1856302874348313,0.18302128589163516,0.007845431198853503,0.07524881029428016,0.06247361287842013,0.03745343152007787,3.505556144620805e-15,0.17517585469278166
159.5,0.1601150421865234,0.15750604064332727,0.005376891566311187,0.06555204229643513,0.05101026925190322,0.03556683752866721,1.0526807074034663e-14,0.15212914907701608
160.0,0.13558652971234053,0.1329775281691444,0.0015302043202581606,0.05692362707292419,0.04075139560891172,0.03377230116701959,3.073804170974144e-14,0.13144732384888624
160.5,0.1133903114347332,0.11078130989153707,-0.002428152927092933,0.049277412950794984,0.03186641505454037,0.03206563481320735,8.731616555354234e-14,0.11320946281863001
161.0,0.09350861058783824,0.09089960904464212,-0.006472827886273513,0.04252858298378813,0.024401040095152957,0.03044281385173314,2.4140576885907117e-13,0.09737243693091563
161.5,0.07656725839348291,0.07395825685028679,-0.009840422709944535,0.03659482985932781,0.01830387693917588,0.028899972761077766,6.498712139851462e-13,0.08379867956023132
162.0,0.06164494818792247,0.05903594664472635,-0.013250524290133445,0.03139727408205319,0.01345579579081618,0.027433401060286217,1.7042071035053176e-12,0.07228647093485979
162.5,0.049426742856412936,0.04681774131321682,-0.015780809044693346,0.02686115004826564,0.009697861160542496,0.026039539144746725,4.355302051610569e-12,0.06259855035791016
163.0,0.039863795244718656,0.037254793701522536,-0.017231481548441632,0.02291628650154166,0.0068550146990198615,0.024714974038550958,1.0851685320446853e-11,0.05448627524996417
163.5,0.032238658665434315,0.029629657122238195,-0.018078295893453146,0.019497408502100924,0.004754109398997764,0.023456435088220956,2.637169707130002e-11,0.04770795301569134
164.0,0.025996403138843584,0.023387401595647464,-0.018653744880707125,0.016544287685521828,0.003236069108144241,0.022260789620154438,6.253408262248233e-11,0.04204114647635459
164.5,0.02144571209824441,0.01883671055504829,-0.01845286676864711,0.014001766453585928,0.002162772143485155,0.021125038581878485,1.4474583648662435e-10,0.0372895773236954
165.0,0.01754018212719638,0.014931180584000258,-0.018354528834151326,0.01181968003669802,0.0014197168691969966,0.02004631218508486,3.2717170542998943e-10,0.033285709418151586
165.5,0.014567842036684209,0.011958840493488087,-0.0179313993948809,0.00995269827599336,0.0009156753234869189,0.019021865566464027,7.224246810554206e-10,0.02989023988836899
166.0,0.012546571009718425,0.009937569466522304,-0.017052080963786433,0.008360106650741097,0.0005804677401233874,0.018049074480536127,1.558908125919746e-09,0.026989650430308737
166.5,0.010405644943738008,0.007796643400541887,-0.016696124756219684,0.007005543653572708,0.0003617901775175777,0.01712543103699845,3.2886728380491324e-09,0.02449276815676157
167.0,0.009622541973545824,0.0070135404303497025,-0.01531349392619909,0.005856709197213061,0.0002217788807514482,0.016248539493560976,6.785023307438285e-09,0.022327034356548793
167.5,0.008389488176327715,0.005780486633131594,-0.014654450061871969,0.004885056402506963,0.00013375448349280122,0.015416112113811603,1.3695192194822398e-08,0.020434936695003562
168.0,0.007815980954629145,0.0052069794114330235,-0.01356387837106933,0.004065476927627281,7.938870299645985e-05,0.01462596509834767,2.7053530942746857e-08,0.018770857782502353
168.5,0.0074989524722691644,0.004889950929073043,-0.012408492038892908,0.0033759879924016188,4.638805919141867e-05,0.013876014596206137,5.2320166774295245e-08,0.01729844296796595
169.0,0.006755903320856028,0.004146901777659907,-0.011841589708679077,0.0027974274536497873,2.6692135246220962e-05,0.013164272802531036,9.909491193919763e-08,0.015988491486338983
169.5,0.0062953778233716465,0.0036863762801755255,-0.011130942792100645,0.0023131617080351693,1.5129344706520166e-05,0.012488844147416312,1.8387211816770392e-07,0.01481731907227617
170.0,0.006454782701242627,0.0038457811580465064,-0.009919734372422275,0.0019088098385630812,8.449758794946845e-06,0.011847921579951072,3.343531596795069e-07,0.01376551553046878
170.5,0.005901736351795027,0.0032927348085989056,-0.009524281807663328,0.0015719862719933296,4.651374281435763e-06,0.011239782950673466,5.960193140016926e-07,0.012817016616262233
171.0,0.00637916208303594,0.003770160539839819,-0.008188256477611875,0.0012920632638886993,2.524376694360637e-06,0.01066278749489041,1.0418819782227677e-06,0.011958417017451694
171.5,0.005821842477567213,0.003212840934371092,-0.007965622883586078,0.001059953758881207,1.3510885952550517e-06,0.010115372418651358,1.786551829351478e-06,0.01117846381795717
172.0,0.0059853502729371386,0.0033763487297410175,-0.007091334725313184,0.0008679145669005021,7.133275456200933e-07,0.009596049588559037,3.0059720490431456e-06,0.010467683455054201
172.5,0.00581424537818286,0.003205243834986739,-0.0066128637263979904,0.0007093693315747845,3.7160900780802875e-07,0.009103402326060639,4.964294741497864e-06,0.00981810756138473
173.0,0.005789776740957818,0.0031807751977616966,-0.0060422979810532355,0.0005787504248521144,1.9106890477660245e-07,0.008636082306381385,8.049378676655109e-06,0.009223073178814932
173.5,0.0054733091128374035,0.0028643075696412825,-0.0058127728128301494,0.0004713586629635393,9.698682791346757e-08,0.008192806561833675,1.2818170846302949e-05,0.008677080382471431
174.0,0.005771939050662959,0.0031629375074668383,-0.005012757999126764,0.0003832395853241834,4.8614391708243254e-08,0.007772354588858738,2.0052718018971706e-05,0.008175695506593602
174.5,0.0050800875622119485,0.0024710860190158275,-0.005244405219674104,0.0003110749536260198,2.406881664751094e-08,0.0073735655578243495,3.082665842291504e-05,0.007715491238689932
