wavelength,absorbance,absorbance_bk,residual_3gauss,Gauss_1,Gauss_2,Gauss_3,Gauss_4,Gauss_fit
117.0,0.16947472482631334,0.16875691810390134,-0.0027834980689397104,2.542964621963025e-07,1.1653763487933326e-52,0.17154016187637885,2.468945025604211e-63,0.17154041617284105
117.5,0.1689773803714191,0.1682595736490071,-0.001751398558038103,4.6267589937093427e-07,6.109209446377121e-51,0.17001050953114583,4.993309480263293e-62,0.1700109722070452
118.0,0.16784978023032118,0.16713197350790918,-0.0011413730703752345,8.263788054123673e-07,2.894232916146268e-49,0.168272520199479,9.529134500275075e-61,0.1682733465782844
118.5,0.16623352691421772,0.16551572019180572,-0.0008243076694401386,1.4495139471038142e-06,1.2417630606353496e-47,0.16633857834729876,1.7179233327992581e-59,0.16634002786124585
119.0,0.16515311410571623,0.16443530738330422,0.00021145530500824017,2.4979146307448555e-06,4.8351076746980975e-46,0.16422135416366523,2.9290416257078065e-58,0.16422385207829598
119.5,0.16198742727099769,0.16126962054858568,-0.0006683195007324838,4.2306949968018506e-06,1.7120635490254068e-44,0.16193370935432136,4.728177842765659e-57,0.16193794004931816
120.0,0.16055723022111956,0.15983942349870756,0.00034377015831360547,7.045110164095289e-06,5.523870131476465e-43,0.15948860823022987,7.233905880123046e-56,0.15949565334039395
120.5,0.15995744084394564,0.15923963412153364,0.002329060717726039,1.153891502696194e-05,1.6271228123329463e-41,0.15689903448878065,1.0500658105146497e-54,0.1569105734038076
121.0,0.15764580208290663,0.15692799536049462,0.002731486268890304,1.8595107876173246e-05,4.384038942681769e-40,0.15417791398372815,1.4476661543135678e-53,0.15419650909160432
121.5,0.15441490283333215,0.15369709611092014,0.002329557945150079,2.949448051833442e-05,1.0824567052241685e-38,0.15133804368525172,1.8974146588434263e-52,0.15136753816577006
122.0,0.1512696160485305,0.1505518093261185,0.0021137207458031826,4.606163591604927e-05,2.453663861709309e-37,0.14839202694439926,2.3665845387893692e-51,0.14843808858031532
122.5,0.14843122962400263,0.14771342290159062,0.002290357894226186,7.084991038185138e-05,5.115125478257124e-36,0.14535221509698257,2.8116568814548317e-50,0.14542306500736443
123.0,0.1446259169699068,0.14390811024749478,0.0015700851088747692,0.0001073697677020533,9.823922624903202e-35,0.14223065537091795,3.1848467953785807e-49,0.14233802513862
123.5,0.14168933113258766,0.14097152441017566,0.0017721158734954057,0.00016036353855204178,1.7411436370685427e-33,0.13903904499812822,3.4426839020575475e-48,0.13919940853668025
124.0,0.13648457818368093,0.13576677146126892,-0.00025804662670117495,0.00023612671063079238,2.852477535068085e-32,0.13578869137733932,3.5544782348572275e-47,0.1360248180879701
124.5,0.13318090908075086,0.13246310235833886,-0.00037024797206217097,0.0003428722432139427,4.326617818037656e-31,0.13249047808718709,3.508358028960263e-46,0.13283335033040103
125.0,0.12983831833378742,0.12912051161137542,-0.0005254544850875897,0.0004911295867134585,6.085529748195208e-30,0.12915483650974954,3.313234970844045e-45,0.129645966096463
125.5,0.1260674429484691,0.1253496362260571,-0.0011362509248165897,0.0006941643583874334,7.949526678432492e-29,0.12579172279248627,2.9962891268214235e-44,0.1264858871508737
126.0,0.12228992983059377,0.12157212310818177,-0.0018068749731667832,0.000968398230137134,9.658988165253015e-28,0.12241059985121142,2.5968887729989963e-43,0.12337899808134856
126.5,0.11939101562893854,0.11867320890652655,-0.0016810171405341745,0.0013338019494212616,1.093224356980025e-26,0.11902042409763947,2.1587803184870403e-42,0.12035422604706073
127.0,0.1169119301779027,0.11619412345549071,-0.0012497412196534607,0.001814228113443182,1.1542498478756937e-25,0.11562963656170099,1.7226175187814382e-41,0.11744386467514417
127.5,0.11337069949582504,0.11265289277341305,-0.002030910339707939,0.002437645042400013,1.1384523891707324e-24,0.11224615807072097,1.3204656797182168e-40,0.11468380311312099
128.0,0.1117206798571784,0.11100287313476641,-0.0011107446193424908,0.003236229609999042,1.050394765211956e-23,0.10887738814410985,9.730802277053347e-40,0.1121136177541089
128.5,0.10929367180485212,0.10857586508244013,-0.001200618126394895,0.0042462759458880665,9.078158352036641e-23,0.10553020726294696,6.898774224861259e-39,0.10977648320883503
129.0,0.1074433212583577,0.10672551453594571,-0.000993346836299161,0.0055078791940859784,7.359062842429875e-22,0.1022109821781589,4.708783049105969e-38,0.10771886137224487
129.5,0.10588074058651718,0.10516293386410519,-0.0008269995477714204,0.007064359483408032,5.602557070322356e-21,0.09892557392846858,3.0964495094206306e-37,0.10598993341187661
130.0,0.10549799851208191,0.10478019178966992,0.00013944237644358815,0.00896140116384608,4.010848995221562e-20,0.09567934824938025,1.9630734983685254e-36,0.10464074941322633
130.5,0.10472332289659685,0.10400551617418485,0.00028243203276968887,0.011245896074665435,2.7033847812253366e-19,0.09247718806674973,1.2006563729669734e-35,0.10372308414141516
131.0,0.10440191541130812,0.10368410868889613,0.0003961042609847698,0.013964496645368035,1.717610122806239e-18,0.08932350778254332,7.089192298581421e-35,0.10328800442791136
131.5,0.1052310665950496,0.10451325987263761,0.0011290866811071998,0.017161904115724998,1.0299088185951974e-17,0.08622226907580541,4.043439016631697e-34,0.10338417319153041
132.0,0.10603055620024444,0.10531274947783245,0.0012568136452943274,0.020878937874226535,5.834875999498679e-17,0.08317699795831153,2.2292335351498454e-33,0.10405593583253812
132.5,0.1067549427493119,0.1060371360268999,0.0006958808208850642,0.0251504523644901,3.1268968614771577e-16,0.08019080284152443,1.1887197609012922e-32,0.10534125520601484
133.0,0.1092290918388316,0.10851128511641961,0.0012417051763495696,0.030003186551029543,1.5868081204219402e-15,0.07726639338903891,6.134593513329277e-32,0.10726957994007004
133.5,0.11167507599037747,0.11095726926796548,0.001097523409542528,0.035453645911983196,7.633676990218425e-15,0.07440609994643213,3.065718051911585e-31,0.10985974585842295
134.0,0.11415533694961988,0.11343753022720789,0.00031951004598344823,0.041506126823086485,3.4849872279168454e-14,0.07161189335810311,1.4844690816218788e-30,0.11311802018122444
134.5,0.11777514575139128,0.11705733902897929,2.0937234598381038e-05,0.048150996796111845,1.51138947677618e-13,0.06888540499811793,6.968669431503436e-30,0.1170364017943809
135.0,0.12247713592282984,0.12175932920041785,0.00016804179501525573,0.055363340545690594,6.233035164699742e-13,0.06622794685908868,3.1732954792502317e-29,0.12159128740540259
135.5,0.12675574515982335,0.12603793843741135,-0.0007046641393405884,0.06310207101470208,2.446817621658756e-12,0.06364053155960303,1.4024595647672808e-28,0.12674260257675193
136.0,0.13239462798668955,0.13167682126427754,-0.0007566574899437462,0.07130958659852418,9.151751451056932e-12,0.061123892146545344,6.018964662919933e-28,0.1324334787542213
136.5,0.1385346723657148,0.13781686564330278,-0.0007736677244750967,0.07991203175138432,3.2645272363728346e-11,0.05867850158374827,2.5097621327406502e-27,0.13859053336777788
137.0,0.14517374542155403,0.14445593869914203,-0.0006688425710041357,0.08882018932627336,1.1116140566404635e-10,0.0563045918327114,1.0172923316420132e-26,0.14512478127014616
137.5,0.1524231618332434,0.15170535511083139,-0.00022781888848494303,0.0979310011930859,3.616605503496877e-10,0.054002172444569875,4.010329366960095e-26,0.15193317399931633
138.0,0.16002464067886116,0.15930683395644915,0.0004061032757319283,0.1071296809603977,1.1252501368269257e-09,0.05177104859506938,1.5383303666955015e-25,0.15890073068071722
138.2,0.16204552072946857,0.16132771400705656,-0.0003770148433006604,0.11080624491790853,1.7501760129063223e-09,0.05089848218227267,2.614101794601401e-25,0.16170472885035722
138.4,0.16498272798106592,0.1642649212586539,-0.0002411860046251657,0.11446887296153765,2.7033061052162297e-09,0.0500372315984353,4.423274702720123e-25,0.16450610726327908
138.6,0.16794190510433218,0.16722409838192018,-7.236754644507348e-05,0.11810920140353312,4.146801935171115e-09,0.049187260378030194,7.452929338637497e-25,0.16729646592836525
138.8,0.17073993157153824,0.17002212484912624,-4.5189738566403514e-05,0.12171878023828434,6.317706636214391e-09,0.04834852803170166,1.2505032011390516e-24,0.17006731458769264
139.0,0.17434648276573436,0.17362867604332236,0.0008185672374298736,0.12528910903874804,9.559981331956763e-09,0.047520990207163105,2.0894416906411447e-24,0.17281010880589248
139.2,0.17682515005660987,0.17610734333419786,0.0005910566595325462,0.12881167345846828,1.4369087666239989e-08,0.04670459884710936,3.476771722405648e-24,0.17551628667466532
139.4,0.1797074220688616,0.17898961534644958,0.0008123094479871029,0.13227798210081107,2.14535343181216e-08,0.045899302344117085,5.761496422406313e-24,0.17817730589846248
139.6,0.18245991840168205,0.18174211167927004,0.0009574306532171006,0.13567960351438496,3.181916374130374e-08,0.045105045692504245,9.508680176685357e-24,0.18078468102605294
139.8,0.18483018155729464,0.18411237483488263,0.0007823542410220763,0.13900820307307685,4.688365855918537e-08,0.04432177063712514,1.562944411965021e-23,0.18333002059386055
140.0,0.18721595019191,0.186498143469498,0.0006930795188659633,0.1422555795006861,6.863085740570003e-08,0.043549415819088534,2.55868955904877e-23,0.18580506395063204
140.2,0.18936065438815997,0.18864284766574796,0.0004411301264626577,0.1454137008038516,9.98170528382786e-08,0.042787916918380846,4.1721004954576023e-23,0.1882017175392853
140.4,0.19189804366408936,0.19118023694167735,0.0006681465211112458,0.14847473938261208,1.4424456447677998e-07,0.04203720679338953,6.775904125345071e-23,0.1905120904205661
140.6,0.19377261975151008,0.19305481302909808,0.0003262841945909922,0.15143110609558616,2.071215995911775e-07,0.041297215617321324,1.0961429695103964e-22,0.19272852883450708
140.8,0.1957402893681544,0.1950224826457424,0.00017883303622165392,0.15427548306622674,2.9553178176000725e-07,0.04056787101151225,1.766308859859406e-22,0.19484364960952075
141.0,0.19756315576979472,0.1968453490473827,-5.02319778303284e-06,0.15700085502774994,4.1904177942310187e-07,0.03984909817563639,2.8351596978895394e-22,0.19685037224516574
141.2,0.19933247301346263,0.19861466629105062,-0.00012728322210484033,0.15960053901713325,5.904812074455144e-07,0.03914082001481476,4.533271049008485e-22,0.19874194951315546
141.4,0.20094983580319456,0.20023202908078255,-0.0002799673609531206,0.1620682122427201,8.269353768614616e-07,0.038442957263638694,7.220726245046064e-22,0.20051199644173567
141.6,0.20213348519678384,0.20141567847437183,-0.0007388390966442115,0.1643979379654461,1.150998453033807e-06,0.037755428607116934,1.145768206548869e-21,0.20215451757101605
141.8,0.2034794120978932,0.20276160537548119,-0.0009023270153225293,0.16658418925022933,1.5923420115890513e-06,0.03707815079856281,1.8112187927909735e-21,0.20366393239080371
142.0,0.20510025872309992,0.20438245200068791,-0.0006526468969153265,0.16862187046152133,2.1896616413114223e-06,0.036411038774440616,2.85242873989616e-21,0.20503509889760324
142.2,0.20586107284646235,0.20514326612405034,-0.0011200691091820814,0.17050633639520862,2.9930718331539842e-06,0.03575400576619064,4.4754820341923976e-21,0.20626333523323243
142.4,0.207114001272868,0.206396194550456,-0.0009482448428904666,0.1722334089577733,4.067026515580112e-06,0.03510696340905755,6.996120117490884e-21,0.20734443939334646
142.6,0.20789747794500252,0.2071796712225905,-0.0010950357968093072,0.1737993913227106,5.493848742446128e-06,0.03446982184794678,1.089628191313365e-20,0.20827470701939982
142.8,0.20855785025633825,0.20784004353392624,-0.0012109037774547249,0.17520107951345204,7.377957593023294e-06,0.033842489840335895,1.6908853482134902e-20,0.20905094731138096
143.0,0.20941238615045188,0.20869457942803987,-0.0009759176920829948,0.1764357713812729,9.850882577107943e-06,0.033224874856272874,2.6144225593714793e-20,0.20967049712012287
143.2,0.21049223550844645,0.20977442878603444,-0.0003568045101020878,0.17750127296572374,1.3077154923316057e-05,0.03261688317548948,4.0278579331579136e-20,0.21013123329613653
143.4,0.21035720796422627,0.20963940124181427,-0.0007921821438059695,0.17839590224379892,1.7261160154795092e-05,0.032018419981666504,6.183297038290334e-20,0.21043158338562024
143.6,0.2109575135456833,0.21023970682327128,-0.0003308279492085786,0.17911849029223748,2.2655026359227652e-05,0.03142938945388316,9.458547714217789e-20,0.21057053477247986
143.8,0.2111676106150148,0.2104498038926028,-9.783847408995072e-05,0.1796683799048449,2.9567606561022394e-05,0.0308496948552868,1.441776313767349e-19,0.21054764236669274
144.0,0.21106647494248673,0.21034866822007472,-1.4366713028152178e-05,0.18004542172341612,3.837459066358467e-05,0.03027923861902319,2.190034742327914e-19,0.21036303493310288
144.2,0.2108585830238383,0.2101407763014263,0.00012335616164169116,0.18024996795661022,4.952975171181198e-05,0.029717922431462568,3.3150825162543354e-19,0.2100174201397846
144.4,0.2109425942930669,0.21022478757065488,0.0007126991899814028,0.18028286377583994,6.357729206908073e-05,0.029165647312764456,5.000786922949059e-19,0.20951208838067348
144.6,0.20977307505362788,0.20905526833121588,0.00020635293846196778,0.18014543649082562,8.116520710799212e-05,0.028622313694820288,7.51784545445883e-19,0.2088489153927539
144.8,0.20910575885576893,0.20838795213335692,0.0003575884897936421,0.179839482619823,0.00010305952712424019,0.02808782149661603,1.1263406556236348e-18,0.20803036364356328
145.0,0.2084817677304854,0.2077639610080734,0.0007044785976294266,0.17936725298060985,0.00013015923277500657,0.027562070197059113,1.6818128188733455e-18,0.20705948241044397
145.2,0.2071530034158116,0.2064351966933996,0.0004952902837281892,0.1787314359380535,0.00016351156630797876,0.027044958905309956,2.502806168100993e-18,0.2059399064096714
145.4,0.20623696444534317,0.20551915772293117,0.0008433049601637987,0.17793513895244586,0.00020432738165652002,0.026536386428664988,3.712175380532605e-18,0.20467585276276737
145.6,0.2047198798757577,0.2040020731533457,0.0007299571423128037,0.176981868579762,0.00025399609323623957,0.02603625133803467,5.4877136358918204e-18,0.2032721160110329
145.8,0.2030975380691114,0.2023797313466994,0.0006456705363289683,0.17587550908056224,0.00031409969874775554,0.02554445203106043,8.08585552025346e-18,0.20173406081037043
146.0,0.2016002933047228,0.20088248658231078,0.0008148747220806385,0.17462029979843774,0.00038642526887425796,0.02506088679291816,1.1875226897145941e-17,0.20006761186023014
146.2,0.19963924547127107,0.19892143874885906,0.0006421982018539052,0.17322081147169172,0.00047297522046111577,0.024585453854852293,1.7383971618405427e-17,0.19827924054700516
146.4,0.19740729456388603,0.19668948784147403,0.0003135401235045687,0.1716819216434047,0.0005759746240787008,0.02411805145048601,2.53662875810504e-17,0.19637594771796946
146.6,0.19535982671128588,0.19464201998887387,0.00027677803705394854,0.17000878933520283,0.0006978747466603839,0.023658577869956666,3.689565595443869e-17,0.19436524195181992
146.8,0.1929900321031184,0.1922722253807064,1.7112719633949336e-05,0.1682068291489385,0.0008413520002160125,0.02320693151191789,5.349503798493529e-17,0.19225511266107245
147.0,0.19057117223660097,0.18985336551418897,-0.00020063184095162057,0.16628168495825563,0.0010093014634251208,0.022763010933459754,7.731809687393001e-17,0.19005399735514059
147.2,0.1882140663189778,0.1874962595965658,-0.00027448281891459536,0.16423920334860462,0.0012048241688868446,0.02232671489798883,1.1140061310074362e-16,0.1877707424154804
147.4,0.18612696025107567,0.18540915352866366,-5.403261334552267e-06,0.1620854069598875,0.0014312074089930988,0.02189794242111745,1.6000814251499008e-16,0.18541455678999821
147.6,0.18360992879806537,0.18289212207565336,-0.00010283603044738965,0.15982646788054458,0.0016918974109488936,0.021476592814607055,2.2911519890260947e-16,0.18299495810610075
147.8,0.1805771898565382,0.1798593831341262,-0.0006623276982749282,0.15746868123567245,0.001990463868317941,0.021062565728410382,3.270635879134024e-16,0.18052171083240112
148.0,0.17805533998871845,0.17733753326630644,-0.0006672230224198106,0.15501843910480123,0.0023305559930636116,0.020655761190860926,4.654639708030778e-16,0.17800475628872625
148.2,0.17552086745689516,0.17480306073448315,-0.0006510737769520325,0.15248220489727138,0.0027158499671112845,0.020256079647051877,6.604265863483833e-16,0.17545413451143518
148.4,0.17271028353499623,0.17199247681258423,-0.0008874214105993317,0.14986648830494695,0.003149987922783247,0.019863421995452407,9.342359814813296e-16,0.17287989822318356
148.6,0.17025345783404247,0.16953565111163046,-0.0007563683163248625,0.14717782094326387,0.0036365088618852495,0.01947768962280491,1.317622756815792e-15,0.17029201942795533
148.8,0.1678603081409054,0.1671425014184934,-0.0005577880279307723,0.1444227327825079,0.004178772226568032,0.01909878443734639,1.8528355025656462e-15,0.16770028944642418
149.0,0.16559145579281315,0.16487364907040114,-0.0002405644441155208,0.14160772946184377,0.0047798751522692825,0.018726608900401016,2.5977818474181547e-15,0.16511421351451666
149.2,0.16331208621929255,0.16259427949688054,5.137811819352911e-05,0.13873927056897806,0.005442564753321074,0.018361066056384243,3.631593420370416e-15,0.16254290137868702
149.4,0.16125493336383356,0.16053712664142156,0.0005421710184491113,0.13582374895865626,0.006169147103047378,0.01800205956126374,5.0620813282292796e-15,0.15999495562297245
149.6,0.15902888268383383,0.15831107596142183,0.00083271621910877,0.13286747117342707,0.006961394859359746,0.01764949370951921,7.0356938295439704e-15,0.15747835974231306
149.8,0.15637237268817047,0.15565456596575847,0.0006541977451740566,0.12987663902040214,0.007820455740530263,0.017303273459642284,9.750775529080785e-15,0.1550003682205844
150.0,0.15381076273503166,0.15309295601261966,0.0005255549454931119,0.12685733234817578,0.008746764260717764,0.01696330445821954,1.3475169325862422e-14,0.15256740106712655
150.5,0.14856955536504007,0.14785174864262807,0.0011363078517433733,0.11922310431909479,0.011352218027960258,0.01614011844379975,2.9882307761251685e-14,0.1467154407908847
151.0,0.142679041919895,0.141961235197483,0.0007285095276497178,0.11153603070913613,0.014342718235364841,0.015353976725267194,6.512429497684968e-14,0.14123272566983328
151.5,0.13752853004805507,0.13681072332564306,0.0006807575629314,0.10387737262134959,0.017649126152814148,0.01460346698840839,1.3952357842152985e-13,0.13612996576271166
152.0,0.1324286458518362,0.1317108391294242,0.0003403883282555864,0.09632034357395328,0.021162898300693855,0.013887208926227535,2.939355906841136e-13,0.1313704508011686
152.5,0.12762512620546615,0.12690731948305414,3.3817503689276274e-05,0.08892950278173901,0.02474014364934693,0.013203855547669827,6.090862133177386e-13,0.12687350197936487
153.0,0.12323365901718183,0.12251585229476984,-7.459458038566735e-06,0.08176043119439746,0.028210786319460956,0.012552094237708195,1.2417871682981892e-12,0.12252331175280841
153.5,0.1185446581398386,0.1178268514174266,-0.00035558847262996685,0.07485966429375777,0.03139212800435544,0.011930647589451778,2.4915806363503326e-12,0.11818243989005657
154.0,0.11395497208549728,0.11323716536308528,-0.0004712382782547375,0.06826485043541773,0.034105279173105414,0.0113382740278956,4.921273789578892e-12,0.11370840364134002
154.5,0.10917997795437764,0.10846217123196565,-0.0005090269054123658,0.06200510027289191,0.03619232961102577,0.010773768243889087,9.57124024656296e-12,0.10897119813737802
155.0,0.10365931881430691,0.10294151209189492,-0.0009278375075478656,0.0561014913585465,0.03753189676669529,0.010235961455866936,1.8334043614657997e-11,0.10386934959944279
155.5,0.09805812728331774,0.09734032056090575,-0.0010019779025184777,0.05056769215047278,0.03805088476249051,0.009723721515862463,3.459846831890632e-11,0.09834229846342422
156.0,0.09242225429179443,0.09170444756938244,-0.0006730485363299621,0.045410671106520056,0.037730872059534765,0.009235952875319028,6.433855332672549e-11,0.0923774961057124
