wavelength,absorbance,absorbance_bk,residual_3gauss
117.0,0.16947472482631334,0.16875691810390134,-0.002783498062488815
117.5,0.1689773803714191,0.1682595736490071,-0.0017513985523593956
118.0,0.16784978023032118,0.16713197350790918,-0.0011413730654556697
118.5,0.16623352691421772,0.16551572019180572,-0.0008243076652639514
119.0,0.16515311410571623,0.16443530738330422,0.00021145530845956273
119.5,0.16198742727099769,0.16126962054858568,-0.0006683194979850982
120.0,0.16055723022111956,0.15983942349870756,0.00034377016038039665
120.5,0.15995744084394564,0.15923963412153364,0.002329060719137882
121.0,0.15764580208290663,0.15692799536049462,0.0027314862696751763
121.5,0.15441490283333215,0.15369709611092014,0.0023295579453383453
122.0,0.1512696160485305,0.1505518093261185,0.0021137207454276774
122.5,0.14843122962400263,0.14771342290159062,0.0022903578933224367
123.0,0.1446259169699068,0.14390811024749478,0.0015700851074812727
123.5,0.14168933113258766,0.14097152441017566,0.001772115871653851
124.0,0.13648457818368093,0.13576677146126892,-0.00025804662894540753
124.5,0.13318090908075086,0.13246310235833886,-0.0003702479746597598
125.0,0.12983831833378742,0.12912051161137542,-0.0005254544879849943
125.5,0.1260674429484691,0.1253496362260571,-0.001136250927955773
126.0,0.12228992983059377,0.12157212310818177,-0.0018068749764851705
126.5,0.11939101562893854,0.11867320890652655,-0.0016810171439649163
127.0,0.1169119301779027,0.11619412345549071,-0.001249741223125711
127.5,0.11337069949582504,0.11265289277341305,-0.0020309103431478265
128.0,0.1117206798571784,0.11100287313476641,-0.0011107446226742007
128.5,0.10929367180485212,0.10857586508244013,-0.0012006181295422386
129.0,0.1074433212583577,0.10672551453594571,-0.0009933468391876143
129.5,0.10588074058651718,0.10516293386410519,-0.0008269995503303873
130.0,0.10549799851208191,0.10478019178966992,0.0001394423742781259
130.5,0.10472332289659685,0.10400551617418485,0.000282432031052382
131.0,0.10440191541130812,0.10368410868889613,0.00039610425975823704
131.5,0.1052310665950496,0.10451325987263761,0.0011290866803993216
132.0,0.10603055620024444,0.10531274947783245,0.0012568136451159978
132.5,0.1067549427493119,0.1060371360268999,0.0006958808212285811
133.0,0.1092290918388316,0.10851128511641961,0.0012417051771875381
133.5,0.11167507599037747,0.11095726926796548,0.0010975234108279164
134.0,0.11415533694961988,0.11343753022720789,0.0003195100476504481
134.5,0.11777514575139128,0.11705733902897929,2.0937236564350092e-05
135.0,0.12247713592282984,0.12175932920041785,0.00016804179718368784
135.5,0.12675574515982335,0.12603793843741135,-0.0007046641370760942
136.0,0.13239462798668955,0.13167682126427754,-0.0007566574876947674
136.5,0.1385346723657148,0.13781686564330278,-0.0007736677223531552
137.0,0.14517374542155403,0.14445593869914203,-0.0006688425691150912
137.5,0.1524231618332434,0.15170535511083139,-0.0002278188869232478
138.0,0.16002464067886116,0.15930683395644915,0.00040610327688836434
138.2,0.16204552072946857,0.16132771400705656,-0.00037701484232352533
138.4,0.16498272798106592,0.1642649212586539,-0.00024118600383485345
138.6,0.16794190510433218,0.16722409838192018,-7.23675458475237e-05
138.8,0.17073993157153824,0.17002212484912624,-4.518973816580729e-05
139.0,0.17434648276573436,0.17362867604332236,0.0008185672376311015
139.2,0.17682515005660987,0.17610734333419786,0.0005910566595337396
139.4,0.1797074220688616,0.17898961534644958,0.0008123094477895387
139.6,0.18245991840168205,0.18174211167927004,0.0009574306528238874
139.8,0.18483018155729464,0.18411237483488263,0.0007823542404382655
140.0,0.18721595019191,0.186498143469498,0.0006930795180984384
140.2,0.18936065438815997,0.18864284766574796,0.00044113012552013386
140.4,0.19189804366408936,0.19118023694167735,0.0006681465200043257
140.6,0.19377261975151008,0.19305481302909808,0.00032628419333186054
140.8,0.1957402893681544,0.1950224826457424,0.00017883303482438273
141.0,0.19756315576979472,0.1968453490473827,-5.023199302900405e-06
141.2,0.19933247301346263,0.19861466629105062,-0.0001272832237302346
141.4,0.20094983580319456,0.20023202908078255,-0.00027996736266561184
141.6,0.20213348519678384,0.20141567847437183,-0.0007388390984241766
141.8,0.2034794120978932,0.20276160537548119,-0.000902327017149207
142.0,0.20510025872309992,0.20438245200068791,-0.0006526468987670675
142.2,0.20586107284646235,0.20514326612405034,-0.0011200691110364591
142.4,0.207114001272868,0.206396194550456,-0.0009482448447246106
142.6,0.20789747794500252,0.2071796712225905,-0.001095035798599986
142.8,0.20855785025633825,0.20784004353392624,-0.0012109037791786237
143.0,0.20941238615045188,0.20869457942803987,-0.0009759176937169656
143.2,0.21049223550844645,0.20977442878603444,-0.00035680451162334315
143.4,0.21035720796422627,0.20963940124181427,-0.0007921821451924715
143.6,0.2109575135456833,0.21023970682327128,-0.00033082795043926083
143.8,0.2111676106150148,0.2104498038926028,-9.783847514496791e-05
144.0,0.21106647494248673,0.21034866822007472,-1.4366713889296667e-05
144.2,0.2108585830238383,0.2101407763014263,0.00012335616099082292
144.4,0.2109425942930669,0.21022478757065488,0.0007126991895550217
144.6,0.20977307505362788,0.20905526833121588,0.0002063529382716478
144.8,0.20910575885576893,0.20838795213335692,0.0003575884898482651
145.0,0.2084817677304854,0.2077639610080734,0.0007044785979347379
145.2,0.2071530034158116,0.2064351966933996,0.0004952902842864926
145.4,0.20623696444534317,0.20551915772293117,0.0008433049609737897
145.6,0.2047198798757577,0.2040020731533457,0.0007299571433694585
145.8,0.2030975380691114,0.2023797313466994,0.0006456705376230998
146.0,0.2016002933047228,0.20088248658231078,0.000814874723598924
146.2,0.19963924547127107,0.19892143874885906,0.0006421982035788587
146.4,0.19740729456388603,0.19668948784147403,0.00031354012541456866
146.6,0.19535982671128588,0.19464201998887387,0.0002767780391231822
146.8,0.1929900321031184,0.1922722253807064,1.7112721832773792e-05
147.0,0.19057117223660097,0.18985336551418897,-0.00020063183865648426
147.2,0.1882140663189778,0.1874962595965658,-0.0002744828165597013
147.4,0.18612696025107567,0.18540915352866366,-5.403258959313373e-06
147.6,0.18360992879806537,0.18289212207565336,-0.00010283602809341152
147.8,0.1805771898565382,0.1798593831341262,-0.0006623276959853708
148.0,0.17805533998871845,0.17733753326630644,-0.000667223020238833
148.2,0.17552086745689516,0.17480306073448315,-0.0006510737749236828
148.4,0.17271028353499623,0.17199247681258423,-0.000887421408766853
148.6,0.17025345783404247,0.16953565111163046,-0.000756368314729805
148.8,0.1678603081409054,0.1671425014184934,-0.0005577880266118551
149.0,0.16559145579281315,0.16487364907040114,-0.00024056444310796565
149.2,0.16331208621929255,0.16259427949688054,5.137811885913557e-05
149.4,0.16125493336383356,0.16053712664142156,0.000542171018747567
149.6,0.15902888268383383,0.15831107596142183,0.0008327162190210347
149.8,0.15637237268817047,0.15565456596575847,0.0006541977446878622
150.0,0.15381076273503166,0.15309295601261966,0.000525554944603629
150.5,0.14856955536504007,0.14785174864262807,0.0011363078498758394
151.0,0.142679041919895,0.141961235197483,0.0007285095249450757
151.5,0.13752853004805507,0.13681072332564306,0.0006807575596416426
152.0,0.1324286458518362,0.1317108391294242,0.00034038832471317004
152.5,0.12762512620546615,0.12690731948305414,3.3817500262350864e-05
153.0,0.12323365901718183,0.12251585229476984,-7.459460999115208e-06
153.5,0.1185446581398386,0.1178268514174266,-0.0003555884748418364
154.0,0.11395497208549728,0.11323716536308528,-0.0004712382795448167
154.5,0.10917997795437764,0.10846217123196565,-0.0005090269057395347
155.0,0.10365931881430691,0.10294151209189492,-0.00092783750700412
155.5,0.09805812728331774,0.09734032056090575,-0.0010019779013088481
156.0,0.09242225429179443,0.09170444756938244,-0.0006730485347357928
156.5,0.08619997631239376,0.08548216958998177,-0.0005292857744092772
157.0,0.0801364143311832,0.0794186076087712,9.36624419739518e-05
157.5,0.07362103312828251,0.07290322640587052,0.0004698494295874017
158.0,0.06733334480575896,0.06661553808334697,0.0011414951433782738
158.5,0.06061412753668122,0.059896320814269224,0.0013041763000377488
159.0,0.05408595908286418,0.053368152360452184,0.0014406671109855884
159.5,0.047357642756431555,0.04663983603401956,0.0010364856563324781
160.0,0.041270246773252126,0.04055244005084013,0.0008338765365109094
160.5,0.035542933886628186,0.034825127164216194,0.00048200861513044563
161.0,0.03017403966007144,0.029456232937659445,-6.10099564671146e-05
161.5,0.025400633639023854,0.024682826916611857,-0.000570508823997111
162.0,0.0211468144394682,0.020429007717056205,-0.0011109730138460228
162.5,0.017377700695309042,0.016659893972897046,-0.0016872628128911243
163.0,0.014586717928788143,0.013868911206376148,-0.001762923517496436
163.5,0.012353143936742679,0.011635337214330684,-0.0017079681713534824
164.0,0.010344680871118547,0.009626874148706553,-0.0018009140852033138
164.5,0.00853592003843435,0.007818113316022356,-0.0020139618363903926
165.0,0.0075211522242228995,0.006803345501810905,-0.001702796295548513
165.5,0.006731614514414884,0.00601380779200289,-0.0013909837370137844
166.0,0.005870387123768049,0.005152580401356055,-0.0013358997738963912
166.5,0.005231842701054985,0.004514035978642991,-0.0012094722469667115
167.0,0.0048784915370160414,0.004160684814604047,-0.0009210855451228803
167.5,0.004686821829747249,0.003969015107335255,-0.0005712170144492289
168.0,0.004098790772437209,0.003380984050025215,-0.0006992869417571856
168.5,0.003771894898897139,0.003054088176485144,-0.0006328946307985893
169.0,0.0035089833144830843,0.0027911765920710895,-0.0005573438553404904
169.5,0.0034881718564994824,0.002770365134087488,-0.00028513814920438744
170.0,0.003514853883721578,0.0027970471613095833,-3.467243650581101e-06
170.5,0.0034655880742723807,0.002747781351860386,0.00017009346716409133
171.0,0.003193718946021877,0.0024759122236098826,9.353289218846147e-05
171.5,0.003066069139600005,0.00234826241718801,0.0001373540242723694
172.0,0.003031143525161637,0.002313336802749642,0.00025297646994156637
172.5,0.002633548079966229,0.0019157413575542342,-1.2692839213847848e-05
173.0,0.0025095508749328256,0.0017917441525208309,-2.1582350268298982e-05
173.5,0.0025705012915383358,0.001852694569126341,0.00013905334018300946
174.0,0.0024218601597126967,0.001704053437300702,7.573469303633236e-05
174.5,0.0024152702062012017,0.001697463483789207,0.00014088545762607645
175.0,0.0021756499616832005,0.0014578432392712058,-4.00247044195284e-05
175.5,0.002219439713724046,0.0015016329913120515,4.980844398149646e-05
176.0,0.002424076781908279,0.0017062700594962842,0.00028803783969544566
176.5,0.002499188952785412,0.0017813822303734174,0.0003843949788255997
177.0,0.0025272706401419653,0.0018094639177299707,0.0004214009639773146
177.5,0.002452038977714156,0.0017342322553021612,0.0003427564059534504
178.0,0.002436932476225857,0.0017191257538138624,0.00031187293539355464
178.5,0.002546361873036983,0.0018285551506249883,0.00039315581161186914
179.0,0.00277597078034396,0.002058164057931965,0.0005822948873185267
179.5,0.0025307215771531583,0.0018129148547411636,0.00028437887250725856
180.0,0.0025743527158599384,0.0018565459934479437,0.0002633784602959412
180.5,0.002516740896096335,0.0017989341736843404,0.00012953110092315135
181.0,0.002628451209841193,0.0019106444874291983,0.00015390985044695204
181.5,0.002591927058600508,0.0018741203361885134,1.9627453138893304e-05
182.0,0.002748663630977567,0.002030856908565572,6.901888420713428e-05
182.5,0.002809546551771588,0.0020917398293595936,1.3983523024810925e-05
183.0,0.002841686395707064,0.0021238796732950694,-7.718263551948455e-05
183.5,0.002744049197744284,0.0020262424753322893,-0.00030416470253895973
184.0,0.0029871862169505463,0.002269379494538552,-0.00019491319511266182
184.5,0.0030948421385929435,0.0023770354161809486,-0.00022405542468675833
185.0,0.0030808541384356675,0.002363047416023673,-0.00037602103997446887
185.5,0.003485638878016215,0.00276783215560422,-0.00010858395502780921
186.0,0.0038002560123331034,0.003082449289921109,7.116878612150636e-05
186.5,0.003642399362079976,0.002924592639667981,-0.0002172066384537397
187.0,0.0037659368744262208,0.0030481301520142263,-0.00021800704007867789
187.5,0.003836569513851949,0.003118762791439954,-0.0002637597069538107
188.0,0.003982855918698875,0.0032650491962868807,-0.00022423318178700202
188.5,0.0043348397223032485,0.003617032999891254,3.215667736855207e-05
189.0,0.004393175788868378,0.0036753690664563833,7.4426257092208466e-06
189.5,0.004428022198294527,0.0037102154758825324,-2.7028317949926925e-05
190.0,0.004377276754673508,0.0036594700322615135,-0.0001323799827490555
190.5,0.004599206525830788,0.003881399803418794,5.0406148851005975e-05
191.0,0.004463071803728686,0.0037452650813166915,-0.00010889580377682409
191.5,0.004400144532399698,0.0036823378099877036,-0.00017874259518269693
192.0,0.004539618699925744,0.0038218119775137492,-2.9910602042299873e-05
192.5,0.004642783854002052,0.003924977131590058,9.868408872706468e-05
193.0,0.004894873292507792,0.004177066570095798,0.00039184540571378206
193.5,0.004720094512445557,0.004002287790033562,0.0002731438720144203
194.0,0.004718061144393043,0.004000254421981048,0.00034136860311101067
194.5,0.004426648762611881,0.0037088420401998863,0.00013340636627943558
195.0,0.004133858896053117,0.0034160521736411225,-6.386877392702741e-05
195.5,0.0038155732949631768,0.003097766572551182,-0.00027581399095256455
196.0,0.003772013104481309,0.003054206382069314,-0.0002035305726908643
196.5,0.004100909603214717,0.0033831028808027222,0.00024933474438121285
197.0,0.004097083847453259,0.0033792771250412646,0.0003761966105693959
197.5,0.00409275347763586,0.0033749467552238654,0.0005078636911141875
198.0,0.0038436967961380394,0.0031258900737260445,0.00039872665726975454
198.5,0.0036929834523211935,0.0029751767299091986,0.0003905104409603374
199.0,0.0033733578634347916,0.0026555511410227967,0.00021467655434960313
199.5,0.0031569986813852146,0.0024391919589732197,0.00014219856501820807
200.0,0.0028229896543533967,0.0021051829319414022,-4.895403972241582e-05
200.5,0.0026406874627003664,0.0019228807402883717,-9.043803894589098e-05
201.0,0.002112635842036788,0.0013948291196247931,-0.00048061533438845117
201.5,0.002226797624233012,0.0015089909018210174,-0.0002323167042878353
202.0,0.0019547302498405025,0.0012369235274285078,-0.00037466469821066314
202.5,0.0018790773374398528,0.0011612706150278581,-0.0003255828366490511
203.0,0.001668087862279252,0.0009502811398672574,-0.0004172792783077165
203.5,0.0016118925036045647,0.00089408578119257,-0.000359975089950436
204.0,0.0016221012030575791,0.0009042944806455845,-0.0002423127616666106
204.5,0.0013573916177181927,0.000639584895306198,-0.0004057749708443468
205.0,0.0015056048782220869,0.0007877981558100922,-0.00016259688202877108
205.5,0.0015528791392825012,0.0008350724168705065,-2.6641211166072033e-05
206.0,0.001465597732271644,0.0007477910098596494,-3.145898441662455e-05
206.5,0.0014073771805686584,0.0006895704581566637,-1.3310498830848908e-05
207.0,0.0014484527214722552,0.0007306459990602606,9.821136013379492e-05
207.5,0.001398491649264764,0.0006806849268527694,0.00011298592806343656
208.0,0.0012488889716681588,0.0005310822492561641,2.2652327456804144e-05
208.5,0.001025015786330898,0.0003072090639189033,-0.00014714969714482896
209.0,0.001184194769115154,0.0004663880467031592,6.118879402269156e-05
209.5,0.0012915431792886877,0.000573736456876693,0.00021308270255597267
210.0,0.0010334064514728363,0.0003155997290608416,-4.819051828758661e-06
210.5,0.0010279487347498915,0.0003101420123378968,2.5952180717024283e-05
211.0,0.0009530083479751821,0.0002352016255631874,-1.6463894918206524e-05
211.5,0.001010713489331013,0.0002929067669190184,7.035573084919702e-05
212.0,0.0008834959041011079,0.0001656891816891132,-3.087178672683138e-05
212.5,0.0010424659173673889,0.0003246591949553942,0.00015123764652973595
213.0,0.000825668598623002,0.00010786187621100729,-4.50104752237783e-05
213.5,0.0007913938284040048,7.358710599201016e-05,-6.108041373986152e-05
214.0,0.0009714822992694237,0.000253675576857429,0.0001350990165519654
214.5,0.0007703485998563836,5.254187744438887e-05,-5.1842896344498214e-05
215.0,0.0008951474354232498,0.00017734071301125508,8.544734407955419e-05
215.5,0.0010334260582365235,0.00031561933582452883,0.0002347000216037114
216.0,0.0008774351442511696,0.0001596284218391749,8.833344705848937e-05
216.5,0.0007318592512501266,1.405252883813189e-05,-4.881504980896721e-05
217.0,0.0009052820321473184,0.00018747530973532375,0.00013197675758754265
217.5,0.0007178067224119947,0.0,-4.9062759617198785e-05
218.0,0.0008834361843234125,0.0001656294619114178,0.00012218178373769623
218.5,0.0011643626617570447,0.00044655593934505005,0.0004080034054308938
219.0,0.0011153039409794896,0.00039749721856749496,0.000363209796841361
219.5,0.0011680894917374808,0.0004502827693254861,0.00041971034227590104
220.0,0.001066107396641493,0.00034830067422949836,0.0003209639098501558
