wavelength,absorbance,absorbance_bk,residual_3gauss
117.0,0.40431095027830183,0.40567846887673525,-0.005616519266134878
117.5,0.40230450226020725,0.4036720208586407,-0.004312909661441822
118.0,0.3986632127334429,0.40003073133187633,-0.0041349309312863625
118.5,0.3953494986760164,0.3967170172744498,-0.003148954609158372
119.0,0.3930250939359271,0.39439261253436053,-0.0007229679873672623
119.5,0.38937486836356655,0.390742386962,0.0007974054928322483
120.0,0.3861313728786353,0.38749889147706873,0.0031135717663242635
120.5,0.37927984373922474,0.38064736233765817,0.0021790405580454086
121.0,0.37477759662223104,0.37614511522066446,0.0039188276389595655
121.5,0.368681878346694,0.37004939694512745,0.004357240049687572
122.0,0.36230109592687165,0.3636686145253051,0.004768950854110665
122.5,0.35425234171896347,0.3556198603173969,0.003736269661977598
123.0,0.34608552308807133,0.34745304168650476,0.0027729068669736234
123.5,0.3383205756352731,0.33968809423370655,0.0023607040733232276
124.0,0.32889838611681943,0.33026590471525286,0.0003999564176112025
124.5,0.32076396888566383,0.32213148748409726,-0.00020812121747804113
125.0,0.31221444723828184,0.31358196583671527,-0.0012142135005464572
125.5,0.3029380678104298,0.30430558640886324,-0.0029827488844844097
126.0,0.29581138007678476,0.2971788986752182,-0.0026955895334003777
126.5,0.28815014662374094,0.28951766522217437,-0.0031019388015954275
127.0,0.2808774341727201,0.2822449527711535,-0.003350939358373606
127.5,0.27392386237008903,0.27529138096852246,-0.003591896031689412
128.0,0.26840052476977,0.2697680433682034,-0.002801512329095701
128.5,0.26369527203644805,0.2650627906348815,-0.0016873523538625257
129.0,0.2595002298966529,0.2608677484950863,-0.0006595633252545197
129.5,0.2558924389313873,0.2572599575298207,0.0002511059185115738
130.0,0.2535313672606872,0.2548988858591206,0.0015927950725144746
130.5,0.25122884961896097,0.2525963682173944,0.00206510547849309
131.0,0.25022205215828236,0.2515895707567158,0.002795336006017779
131.5,0.250688183423632,0.25205570202206545,0.00385703692470013
132.0,0.2510238183312247,0.25239133692965815,0.0035536353585129965
132.5,0.25278768458483486,0.2541552031832683,0.0033658218060407807
133.0,0.25652110435239134,0.25788862295082476,0.003776689150377044
133.5,0.2604158635557613,0.2617833821541947,0.0029441628443702683
134.0,0.2654542218658338,0.2668217404642672,0.0018451820972433808
134.5,0.2721840093696597,0.2735515279680931,0.0010543205332080863
135.0,0.280281416177746,0.2816489347761794,0.0003092078304693935
135.5,0.28894812636035727,0.2903156449587907,-0.0010908110444859398
136.0,0.2993689468977019,0.3007364654961353,-0.0018267969849070642
136.5,0.31107666499691244,0.31244418359534587,-0.0021964938319390392
137.0,0.3241397296976815,0.32550724829611494,-0.0019292046702301113
137.5,0.33806569157816996,0.3394332101766034,-0.0012862975797199305
138.0,0.35258213429634633,0.35394965289477975,-0.0002854957105777878
138.2,0.35779165835997645,0.3591591769584099,-0.0004868480042073964
138.4,0.36367359988764286,0.3650411184860763,8.370534920754125e-06
138.6,0.36919244621896224,0.37055996481739567,0.0001827933783590252
138.8,0.37492378291907297,0.3762913015175064,0.0006302551259946276
139.0,0.38081732104517607,0.3821848396436095,0.0013187373849456452
139.2,0.3860435770557962,0.38741109565422965,0.0014369665667077758
139.4,0.3912226387636657,0.3925901573620991,0.0016230975530512337
139.6,0.396229121629409,0.3975966402278424,0.0017695880764772576
139.8,0.40100238163021057,0.402369900228644,0.0018333305916567455
140.0,0.405221987951309,0.4065895065497424,0.0015110454160804365
140.2,0.4090387592797089,0.4104062778781423,0.0009702394322338992
140.4,0.4132117387678146,0.414579257366248,0.0009861059091161861
140.6,0.4165747510175882,0.4179422696160216,0.0004080092555054926
140.8,0.42012958013694546,0.4214970987353789,0.0002525941848388058
141.0,0.42285746361543886,0.4242249822138723,-0.0004847855719337102
141.2,0.4256514631887546,0.427018981787188,-0.0008977574907469421
141.4,0.42836350876722257,0.429731027365656,-0.0011219430445341128
141.6,0.430638394764758,0.43200591336319144,-0.001501013480030955
141.8,0.4322808543398812,0.43364837293831465,-0.0022196628850850164
142.0,0.43444550274048904,0.43581302133892247,-0.0021137072323195727
142.2,0.4357465234611781,0.4371140420596115,-0.0025604356333117084
142.4,0.43718923838261936,0.4385567569810528,-0.0025470726447278658
142.6,0.4384250808784821,0.4397925994769155,-0.0024158327213668618
142.8,0.4392183442481525,0.4405858628465859,-0.002397194607932085
143.0,0.4399871954529593,0.4413547140513927,-0.0020689059099078255
143.2,0.4405825521253878,0.44195007072382125,-0.0015771201564359072
143.4,0.44030166962817113,0.44166918822660456,-0.0016228199186594794
143.6,0.44024383374995973,0.44161135234839316,-0.0011061307859066005
143.8,0.4397945086624613,0.4411620272608947,-0.0006421769999373494
144.0,0.438920787958014,0.4402883065564474,-0.0002656313731042581
144.2,0.43773472639224326,0.4391022449906767,0.00013261768998806822
144.4,0.43624838144709616,0.4376159000455296,0.0005605107631367345
144.6,0.4338483194404949,0.4352158380389283,0.00039932792095459524
144.8,0.4317368544449189,0.4331043730433523,0.0008449331923945924
145.0,0.4289910936177784,0.4303586122162118,0.0009668263826899115
145.2,0.42574388319755274,0.42711140179598617,0.0008890965043475418
145.4,0.42253960911027216,0.4239071277087056,0.0011462309350537825
145.6,0.4189006894231197,0.4202682080215531,0.0012496179313167266
145.8,0.41485445410120264,0.41622197269963607,0.0012144385921937229
146.0,0.4108734315323778,0.41224095013081125,0.0014999686428151526
146.2,0.4061574135364016,0.40752493213483504,0.001291662935753446
146.4,0.4010455761766434,0.4024130947750768,0.0009133014449194121
146.6,0.39622127254196227,0.3975887911403957,0.0010318146331758093
146.8,0.39067464319541273,0.39204216179384616,0.0006199358263262456
147.0,0.38505141838995854,0.38641893698839197,0.0003050567980663055
147.2,0.37938025666819863,0.38074777526663206,9.663338241794328e-05
147.4,0.3739249504949865,0.3752924690934199,0.00023847396410964228
147.6,0.3678952126405072,0.3692627312389406,-8.037334250227124e-05
147.8,0.36138923177743937,0.3627567503758728,-0.0007829445036149352
148.0,0.35561143029725045,0.3569789488956839,-0.0006864598723263504
148.2,0.34930071829123494,0.35066823688966836,-0.0010739060700082903
148.4,0.3432700820170342,0.3446376006154676,-0.0011542607989978304
148.6,0.3379328946006527,0.3393004131990861,-0.0005359732967628594
148.8,0.33236979697919417,0.3337373155776276,-0.00015985378275618078
149.0,0.3269851381617051,0.32835265676013853,0.00035761483978874464
149.2,0.32163117058934454,0.32299868918777797,0.000848735433039649
149.4,0.31655860416628123,0.31792612276471466,0.0015454243740123386
149.6,0.3117751039781263,0.3131426225765597,0.002437988188719653
149.8,0.30623104667169787,0.3075985652701313,0.0024611576898525556
150.0,0.3008403926512162,0.30220791124964963,0.0025152296359644
150.5,0.28751230355553664,0.28887982215397007,0.002194133346738125
151.0,0.2750000300302933,0.2763675486287267,0.0017511279195676077
151.5,0.2633793840550996,0.264746902653533,0.0012653960162364863
152.0,0.2520258743651462,0.2533933929635796,0.00023008897203863343
152.5,0.2412654731495444,0.24263299174797784,-0.0008082357418673081
153.0,0.23124687812026132,0.23261439671869474,-0.0014037455992257364
153.5,0.22150523063476288,0.2228727492331963,-0.0016863633936193556
154.0,0.2113917827799576,0.21275930137839102,-0.001977815985222564
154.5,0.2007832861304832,0.20215080472891664,-0.0021278276901640636
155.0,0.18946961335718737,0.1908371319556208,-0.0021645810283533184
155.5,0.17782418318933796,0.17919170178777138,-0.0016488003267635942
156.0,0.1655961430021524,0.16696366160058582,-0.0008889795593343686
156.5,0.15308297033314144,0.15445048893157487,0.0002412416801433337
157.0,0.14030612525207953,0.14167364385051295,0.001503442445311226
157.5,0.12753940990195223,0.12890692850038565,0.0028571420559317107
158.0,0.1145504579328634,0.11591797653129682,0.003739169861966027
158.5,0.10143830520003848,0.10280582379847189,0.003936700379200561
159.0,0.08869652174487352,0.09006404034330694,0.0036787650213938455
159.5,0.07619767765716948,0.07756519625560289,0.0026392474734817373
160.0,0.06441829502751653,0.06578581362594994,0.0011697954536120242
160.5,0.053642383610453315,0.055009902208886734,-0.000498212884252329
161.0,0.043995489393478325,0.045363007991911744,-0.0022284797321191208
161.5,0.035377365712526795,0.036744884310960214,-0.004060484518568407
162.0,0.0281348545111104,0.029502373109543817,-0.005551747338545507
162.5,0.021838058090972955,0.02320557668940637,-0.007016321652724165
163.0,0.017064113953689345,0.01843163255212276,-0.007753643449255068
163.5,0.013177076895392272,0.014544595493825687,-0.008278404020543266
164.0,0.009758290018026194,0.01112580861645961,-0.008896866555838937
164.5,0.007175789297574262,0.008543307896007678,-0.009141340230734953
165.0,0.005390947645793179,0.006758466244226595,-0.008965129924108
165.5,0.00405551487463872,0.005423033473072136,-0.00864542780543163
166.0,0.0027150434113120086,0.004082562009745425,-0.008578755684021808
166.5,0.0017123538544067357,0.0030798724528401517,-0.008375805706637918
167.0,0.0009275916532478368,0.0022951102516812526,-0.008119502506665724
167.5,0.0005840629232550986,0.0019515815216885144,-0.00755734671904606
168.0,0.0002327688382635113,0.0016002874366969273,-0.007115261058793652
168.5,-0.0003734993650018834,0.0009940192334315326,-0.007022137052604064
169.0,-0.0005066069596654741,0.0008609116387679419,-0.006535191089431009
169.5,-0.0004344857494790963,0.0009330328489543197,-0.0059105271843447015
170.0,-0.0006315145887139233,0.0007360040097194926,-0.005612874944400747
170.5,-0.0007489260573242053,0.0006185925411092107,-0.005285516857212954
171.0,-0.0006509245484088573,0.0007165940500245587,-0.004786052000713162
171.5,-0.0008684709058983227,0.0004990476925350933,-0.004639919418936451
172.0,-0.0010251461283962667,0.00034237247003714925,-0.004466068712544505
172.5,-0.0011837483904388643,0.0001837702079945517,-0.00432341347107033
173.0,-0.0011865571379997008,0.00018096146043371513,-0.004050987886954632
173.5,-0.0012104721134099208,0.0001570464850234952,-0.0038230049379904775
174.0,-0.0013174898722433217,5.002872619009431e-05,-0.003699272026708085
174.5,-0.0010829333290502104,0.0002845852693832056,-0.0032533747830766927
175.0,-0.001367518598433416,0.0,-0.00334470958147238
175.5,-0.001065453248064632,0.0003020653503687839,-0.0028665557640969877
176.0,-0.0007749456518730771,0.0005925729465603389,-0.002416564376053957
176.5,-0.0005587869845854052,0.0008087316138480108,-0.002057322105496277
177.0,-0.00036292657955899966,0.0010045920188744163,-0.0017349082505332472
177.5,-0.00019716483264463523,0.0011703537657887808,-0.0014595659537459484
178.0,6.417473909694609e-05,0.001431693337530362,-0.0011063464227163418
178.5,-0.00017743381523470156,0.0011900847831987143,-0.0012747515561487939
179.0,0.0004051633018445344,0.0017726819002779504,-0.0006388039662433176
179.5,0.000152042872052997,0.0015195614704864129,-0.00085974323182783
180.0,0.0003277472616802203,0.0016952658601136362,-0.0006744093549154438
180.5,0.0006123303764340966,0.0019798489748675124,-0.0004041098136785622
181.0,0.0005859962000905829,0.0019535147985239986,-0.000469882617553782
181.5,0.000906952226713812,0.002274470825147228,-0.00021453600992123352
182.0,0.0011174192792926887,0.002484937877726105,-9.652756275570305e-05
182.5,0.0012519694186454498,0.0026194880170788658,-8.1516320827482e-05
183.0,0.0013883749344745784,0.0027558935329079944,-9.141120992206628e-05
183.5,0.0014873983697156709,0.002854916968149087,-0.0001644924199226275
184.0,0.001937286441532852,0.003304805039966268,8.915045763062835e-05
184.5,0.0024174426864092763,0.0037849612848426923,0.00035133226467258137
185.0,0.002420782557618134,0.00378830115605155,0.00011813678286425738
185.5,0.002837602656651739,0.004205121255085155,0.00028376011583279136
186.0,0.003287094442033181,0.004654613040466597,0.0004719617569940715
186.5,0.003193560085486248,0.004561078683919664,0.00011218167716969384
187.0,0.003465173590173095,0.004832692188606511,0.00011816949944933562
187.5,0.003914785593959934,0.005282304192393349,0.00030862933597364077
188.0,0.004019088928928646,0.005386607527362062,0.00016620444086346605
188.5,0.004388667276418349,0.005756185874851764,0.00030733260604863966
189.0,0.004663961247433862,0.006031479845867278,0.0003780161701004599
189.5,0.0047578383379651,0.006125356936398516,0.00029620295235013774
190.0,0.004578963245928881,0.005946481844362297,-2.5015871604709174e-05
190.5,0.004688136748633821,0.006055655347067236,-2.1214184598163446e-05
191.0,0.004750811566635212,0.006118330165068627,-2.4230143689000887e-05
191.5,0.0046402338666721365,0.006007752465105553,-0.00015910241145601547
192.0,0.004580118859580378,0.005947637458013794,-0.00020143201641624302
192.5,0.0046345684774498986,0.006002087075883315,-8.746123525518127e-05
193.0,0.0049389612020831275,0.006306479800516544,0.0003168589526010611
193.5,0.004663739231935754,0.006031257830369169,0.00017973437126343056
194.0,0.004568897572174872,0.005936416170608288,0.00025812535507671163
194.5,0.004240614986865092,0.005608133585298507,0.00013450999020078389
195.0,0.0035160490157458623,0.004883567614179279,-0.00035817228710616905
195.5,0.003106565234456284,0.0044740838328897,-0.0005131342184069524
196.0,0.002788194088965592,0.004155712687399008,-0.000559125519984955
196.5,0.002699218692212487,0.004066737290645903,-0.0003626924337259609
197.0,0.0025512246765136857,0.003918743274947102,-0.0002169868790908372
197.5,0.0022695645195712735,0.0036370831180046895,-0.0002011775598673958
198.0,0.00197601183335586,0.003343530431789276,-0.00019769100236390015
198.5,0.0017136071375178767,0.0030811257359512926,-0.00016728312475964083
199.0,0.0013128256895398303,0.0026803442879732462,-0.0002828115907153408
199.5,0.001143814097812898,0.002511332696246314,-0.00017696187126103663
200.0,0.0008035275929456878,0.002171046191379104,-0.00025509378982268953
200.5,0.000556151790667549,0.001923670389100965,-0.0002548225768786124
201.0,0.0002031638779057042,0.0015706824763391202,-0.0003759767975496104
201.5,0.00022208390397151457,0.0015896025024049304,-0.0001418794239968909
202.0,0.00019923088993148343,0.0015667494883648994,3.336583944007305e-05
202.5,6.847889468003252e-05,0.0014359974931134486,8.358124668211343e-05
203.0,1.1528987441975877e-06,0.0013686714971776137,0.00018035750882591144
203.5,-0.0002743973714179206,0.0010931212270154952,5.257284618849262e-05
204.0,9.702656893410659e-05,0.0014645451673675224,0.0005561630778885312
204.5,-5.3061785409961934e-05,0.001314456813023454,0.0005235366118105684
205.0,-1.5055810076965652e-05,0.0013524627883564502,0.000665305339694298
205.5,2.899926668048749e-05,0.0013965178651139034,0.0008004974246661341
206.0,0.0002551751613697617,0.0016226937598031775,0.0011062894346737762
206.5,0.0004404475913048056,0.0018079661897382215,0.0013607625365401072
207.0,0.0004093365871750769,0.001776855185608493,0.0013895177037160436
207.5,-3.2641429149510444e-05,0.0013348771692839054,0.000999108180203641
208.0,0.00026327749156084814,0.001630796089994264,0.0013392760639949412
208.5,-2.792805315508648e-05,0.0013395905452783295,0.001085909396877388
209.0,0.0002231537349965916,0.0015906723334300076,0.00136925460562479
209.5,0.00018037775272067787,0.0015478963511540939,0.0013539235845440587
210.0,-2.6696270842881383e-05,0.0013408223275905345,0.001170155296935203
210.5,0.00013379797736776352,0.0015013165758011795,0.0013504194974121326
211.0,-8.395627364580973e-05,0.0012835623247876063,0.0011494306104566174
211.5,0.00019698935035057216,0.0015645079487839881,0.001444600616222245
212.0,3.3122004623829686e-05,0.0014006406030572457,0.0012928180541180738
212.5,7.867956980619706e-05,0.001446198168239613,0.0013486657151896367
213.0,1.654476537915952e-05,0.0013840633638125754,0.0012953206179459296
213.5,-0.00017086058669601577,0.0011966580117374003,0.0011154540426851465
214.0,-2.9421762853458484e-05,0.0013380968355799574,0.0012633908572475788
214.5,-0.00022183828355395863,0.0011456803148794574,0.0010766075477654535
215.0,0.00014380077919758094,0.001511319377630997,0.0014471616698455703
215.5,9.692017912751949e-05,0.0014644387775609355,0.001404599530901107
216.0,0.00011326731811914172,0.0014807859165525577,0.0014247688527441224
216.5,-0.00026315858359652965,0.0011043600148368863,0.0010517513244802865
217.0,0.0001719413456575611,0.001539459944090977,0.0014899133817136815
217.5,-5.881637376945613e-05,0.0013087022246639599,0.0012619267431921279
218.0,0.0001279090127138596,0.0014954276111472755,0.0014511771644863322
218.5,9.808338952856183e-05,0.0014656019879619778,0.0014236671683982422
219.0,0.00033418718334182247,0.0017017057817752385,0.0016619069974333205
219.5,0.0004162113039660913,0.0017837299023995073,0.001745911837449993
220.0,0.00036609856851187167,0.0017336171669452877,0.0016976443025788655
