wavelength,absorbance,absorbance_bk,residual_3gauss,Gauss_1,Gauss_2,Gauss_3,Gauss_4,Gauss_fit
117.0,0.6539860496273482,0.653038408796932,-0.0049509440869776045,1.0352166868812997e-06,8.27376632113631e-58,0.6579883176672227,5.323152242119804e-93,0.6579893528839096
117.5,0.6440125661860489,0.6430649253556326,-0.00966652485617725,1.8776706229549803e-06,6.925647289256253e-56,0.6527295725411869,5.195638116038694e-91,0.6527314502118099
118.0,0.6425077416729945,0.6415601008425783,-0.00509794283473064,3.3430259208724757e-06,5.174026413423638e-54,0.6466547006513881,4.63838606839986e-89,0.646658043677309
118.5,0.6385053825820639,0.6375577417516477,-0.002257411811120713,5.844783868091182e-06,3.458202243544591e-52,0.6398093087789003,3.794190307744969e-87,0.6398151535627684
119.0,0.63382182347796,0.6328741826475438,0.0006238364093685833,1.0038701537043153e-05,2.0727333422826038e-50,0.6322403075366382,2.848683993896546e-85,0.6322503462381752
119.5,0.6272857783458664,0.6263381375154502,0.0023256432625335943,1.6944739995939778e-05,1.1166106339283588e-48,0.6239955495129207,1.966410063669734e-83,0.6240124942529166
120.0,0.6189807468240995,0.6180331059936833,0.0028815008330257408,2.8119298831596105e-05,5.418712936623798e-47,0.615123485861826,1.2500392927101785e-81,0.6151516051606576
120.5,0.6118539300800973,0.610906289249681,0.00518755320797859,4.589298810472145e-05,2.3739675669944118e-45,0.6056728430535977,7.329797410949638e-80,0.6057187360417025
121.0,0.6031057600395142,0.602158119209098,0.006392106707854395,7.369138994850614e-05,9.409442198309994e-44,0.5956923211112951,3.970655864547046e-78,0.5957660125012436
121.5,0.5917753279728726,0.5908276871424564,0.005480915107613948,0.00011645773841472163,3.381179608509243e-42,0.5852303142964277,1.9902261037818676e-76,0.5853467720348424
122.0,0.5812722642622544,0.5803246234318382,0.005808771895405296,0.00018119666735550067,1.103752839580157e-40,0.5743346548690774,9.244118011312434e-75,0.5745158515364329
122.5,0.5689879163536816,0.5680402755232654,0.004710238752946183,0.00027765653139025356,3.279731798235741e-39,0.563052380238929,3.984647452433905e-73,0.5633300367703192
123.0,0.5565743351112802,0.555626694280864,0.003778007081886803,0.0004191636552362828,8.888155492957314e-38,0.5514295235437409,1.5962466027277307e-71,0.5518486871989772
123.5,0.544558983973765,0.5436113431433488,0.003476801080304348,0.0006236146212885048,2.2009817458580506e-36,0.539510927441756,5.95122315671088e-70,0.5401345420630445
124.0,0.529493130542443,0.5285454897120268,0.0002907871065468415,0.0009146219211737016,4.989518567247199e-35,0.5273400806843062,2.0677865639935428e-68,0.5282547026054799
124.5,0.5162637861394972,0.515316145309081,-0.0009656253260991177,0.0013227937913340038,1.0373514358083837e-33,0.5149589768438461,6.704746454861446e-67,0.5162817706351801
125.0,0.5024239843200927,0.5014763434896765,-0.00281876193768571,0.001887111017178691,1.981472826835945e-32,0.5024079944101836,2.031455749553353e-65,0.5042951054273622
125.5,0.4887567859453325,0.48780914511491635,-0.00457299480639467,0.0026563425890125648,3.483355579069542e-31,0.4897257973322985,5.758898992410991e-64,0.492382139921311
126.0,0.476407283942128,0.47545964311171185,-0.005180031386449735,0.0036904195245787267,5.645346846665058e-30,0.47694925497358287,1.5294146167589656e-62,0.4806396744981616
126.5,0.4649253308238764,0.46397768999346023,-0.005197354048323999,0.005061663678933651,8.448620028897062e-29,0.4641133803628506,3.8097760958625506e-61,0.46917504404178423
127.0,0.45314724539217627,0.4521996045617601,-0.005907429162530231,0.006855748164068276,1.1694628018844253e-27,0.4512512855602221,8.912208386960962e-60,0.45810703372429035
127.5,0.44321988895932135,0.4422722481289052,-0.0052941554448164285,0.009172250659545357,1.499615971922879e-26,0.43839415291417627,1.960175018343394e-58,0.4475664035737216
128.0,0.43490618607755827,0.4339585452471421,-0.0037373288101064106,0.012124653095643187,1.7841813766398912e-25,0.4255712209616053,4.0581585071488213e-57,0.4376958740572485
128.5,0.4263888511500674,0.42544121031965126,-0.0032082168543289824,0.015839643459153625,1.9725166662856166e-24,0.41280978371482663,7.917318250468385e-56,0.42864942717398025
129.0,0.42015313067901033,0.4192054898485942,-0.001385302098914576,0.020455589861468598,2.0294018419869194e-23,0.40013520208604014,1.4572095337898944e-54,0.42059079194750876
129.5,0.4150555527018885,0.41410791187147233,0.00041690087617496374,0.026120084776251256,1.9458526230539954e-22,0.3875709262190461,2.5329720303631836e-53,0.41369101099529737
130.0,0.41143361604641376,0.4104859752159976,0.0023609490071834216,0.03298649868068512,1.7412512121430826e-21,0.37513852752812904,4.162584140997917e-52,0.4081250262088142
130.5,0.40813163593266105,0.4071839951022449,0.003116719695666459,0.04120953612329733,1.4562104943543357e-20,0.36285773928328113,6.473959211976212e-51,0.40406727540657844
131.0,0.4065935194714448,0.40564587864102863,0.00395952297846025,0.050939851034812834,1.139689819639573e-19,0.35074650462775553,9.538757367474854e-50,0.4016863556625684
131.5,0.4073188301565054,0.40637118932608923,0.005232310222531289,0.06231784813681072,8.358430764659236e-19,0.3388210309667472,1.3327845063158139e-48,0.40113887910355794
132.0,0.40929000186374376,0.4083423610333276,0.005779642573355448,0.07546686873644755,5.751772795049029e-18,0.3270958497235246,1.7676518659519268e-47,0.40256271845997216
132.5,0.41197269145882504,0.4110250506284089,0.004955143668412487,0.09048602643977749,3.718508349762567e-17,0.31558388052021885,2.227490155323998e-46,0.4060699069599964
133.0,0.41749074447602136,0.4165431036456052,0.004803589219999349,0.10744301552193403,2.2613364577941077e-16,0.3042964989036716,2.6694520202660068e-45,0.41173951442560586
133.5,0.42486634831758013,0.423918707487164,0.0043078444000465566,0.12636725628589926,1.2951460532408854e-15,0.29324360680121686,3.045175689430134e-44,0.4196108630871174
134.0,0.4332405338864297,0.43229289305601354,0.002615425121364201,0.14724376297852804,6.994326712464765e-15,0.2824337049561143,3.309595849339666e-43,0.42967746793464934
134.5,0.4439944948087521,0.44304685397833593,0.001164770017007155,0.17000811730444199,3.5657603021757445e-14,0.2718739666568511,3.429970882130669e-42,0.4418820839613288
135.0,0.456731714326475,0.4557840734960589,-0.0003291412557508422,0.19454290261369378,1.7180355576390315e-13,0.2615703121379441,3.3925906340592284e-41,0.4561132147518097
135.5,0.47076806504030977,0.4698204242098936,-0.0023829596318832857,0.22067590074924337,7.831954259611203e-13,0.2515274830917503,3.205258987393335e-40,0.4722033838417769
136.0,0.487266921412406,0.48631928058198987,-0.0036101138946131317,0.2481802776826639,3.381739199672069e-12,0.24174911679055736,2.8949635080897298e-39,0.489929394476603
136.5,0.5058110340530101,0.5048633932225939,-0.004151315876567807,0.2767768897097365,1.384541716306007e-11,0.2322378193755798,2.501622423546929e-38,0.5090147090991617
137.0,0.5262919034701388,0.5253442626397226,-0.0037897103218959005,0.30613873498369215,5.3804943359215545e-11,0.22299523792412135,2.069867011311202e-37,0.5291339729616185
137.5,0.5484718985107013,0.5475242576802851,-0.0023953359927992857,0.3358974625165934,1.9867042507073124e-10,0.2140221309578206,1.6411245081149286e-36,0.5499195936730844
138.0,0.5713401185103162,0.5703924776799,-0.0005777001288090888,0.36565174000752504,6.977094167736322e-10,0.2053184371034747,1.2478105560879265e-35,0.5709701778087091
138.2,0.5789508367335668,0.5780031959031506,-0.001366710616492739,0.37745766881308496,1.1373428937820217e-09,0.2019122365692155,2.7767087624334163e-35,0.5793699065196434
138.4,0.5881156886326895,0.5871680478022733,-0.000548155212954704,0.38916726553397735,1.839586870908586e-09,0.1985489356416638,6.138657886615642e-35,0.587716203015228
138.6,0.5972084651068271,0.5962608242764109,0.00027989919919879647,0.40075248864699314,2.952486317779558e-09,0.1952284334777326,1.3483361325268922e-34,0.5959809250772121
138.8,0.6061080692668509,0.6051604284364347,0.0010245802254147396,0.41218523063330065,4.702411525893371e-09,0.1919506128753078,2.9425551727014046e-34,0.60413584821102
139.0,0.6151847771196135,0.6142371362891973,0.0020843461588714307,0.42343744180419507,7.4326680458265036e-09,0.1887153408934628,6.380763550406168e-34,0.6121527901303259
139.2,0.6231425645818622,0.622194923751446,0.0021911879368053944,0.43448125469299215,1.1659668516746783e-08,0.18552246946198003,1.3748712166914642e-33,0.6200037358146406
139.4,0.6311764946080467,0.6302288537776305,0.0025678914580961054,0.44528910818556067,1.815393663881456e-08,0.18237183598003712,2.9438271009392605e-33,0.6276609623195344
139.6,0.6387337432166085,0.6377861023861923,0.0026889398601085412,0.45583387056627456,2.8055895789712517e-08,0.17926326390391345,6.263872531833453e-33,0.6350971625260837
139.8,0.6461516424055459,0.6452040015751297,0.0029184345439750015,0.46608896066763783,4.303992760596261e-08,0.17619656332358918,1.3245645403629274e-32,0.6422855670311547
140.0,0.6525303540255529,0.6515827131951367,0.0023826497918785217,0.47602846633031765,6.554478412873557e-08,0.1731715315281564,2.7836975850244114e-32,0.6492000634032582
140.2,0.6586785515376682,0.657730910707252,0.001915598647125094,0.4856272594058395,9.9094349702827e-08,0.1701879535599376,5.81445024062557e-32,0.6558153120601269
140.4,0.665040651612903,0.6640930107824868,0.001986152719056,0.49486110656591303,1.4874025634921064e-07,0.16724560275726147,1.2071236333134613e-31,0.6621068580634308
140.6,0.6702572099452879,0.6693095691148717,0.0012583309414594401,0.5037067752203037,2.216672654235801e-07,0.16434424128584313,2.4909786108779373e-31,0.6680512381734123
140.8,0.675312511102663,0.6743648702722468,0.000738787710917288,0.5121421338886442,3.280139610345696e-07,0.16148362065872435,5.109541251645152e-31,0.6736260825613295
141.0,0.6793301218013861,0.6783824809709699,-0.00042772966927773215,0.5201462464199972,4.819754776933349e-07,0.1586634822447728,1.0418515796369677e-30,0.6788102106402476
141.2,0.6834993064407796,0.6825516656103634,-0.0010320549344402519,0.5276994595070885,7.032720016266149e-07,0.15588355776571353,2.111835350370955e-30,0.6835837205448037
141.4,0.6873493338596837,0.6864016930292675,-0.001526378838211162,0.534783482998878,1.0190868803116208e-06,0.1531435697817203,4.255617545909591e-30,0.6879280718674786
141.6,0.6907100767340763,0.68976243590366,-0.0020637254387561033,0.5413814625753541,1.4666014874556475e-06,0.1504432321655745,8.525726507780879e-30,0.6918261613424161
141.8,0.6933586202450801,0.6924109794146639,-0.0028514118423836887,0.5474780444111103,2.0962805105226633e-06,0.14778225056542685,1.6981821386887085e-29,0.6952623912570476
142.0,0.6961982132596563,0.69525057242924,-0.0029721580367403355,0.5530594315189362,2.976090835184345e-06,0.14516032285620897,3.3630928716020525e-29,0.6982227304659804
142.2,0.6981776908875719,0.6972300500571557,-0.0034647179224193136,0.558113431530631,4.1968691991034144e-06,0.142577139579745,6.622358512331543e-29,0.700694767979575
142.4,0.7001580831169615,0.6992104422865453,-0.003457316913318076,0.5626294957388004,5.879087430601333e-06,0.14003238437363236,1.2966510930518288e-28,0.7026677591998634
142.6,0.7019390508499738,0.7009914100195576,-0.0031412549575040583,0.5665987492899895,8.181298108479462e-06,0.13752573438896348,2.524570069743472e-28,0.7041326649770616
142.8,0.7028970014810875,0.7019493606506713,-0.0031328231078457947,0.5700140124854283,1.1310576120053103e-05,0.13505686069696876,4.887904264509517e-28,0.7050821837585171
143.0,0.7040692763587796,0.7031216355283634,-0.002389141667207273,0.5728698132103381,1.5535300551911764e-05,0.13262542868468066,9.411219219768126e-28,0.7055107771955706
143.2,0.7046276881542436,0.7036800473238274,-0.0017346423352970763,0.5751623905756801,2.120064373760247e-05,0.13023109843970687,1.8020791645356686e-27,0.7054146896591245
143.4,0.7039290349931281,0.7029813941627119,-0.0018105680249020928,0.5768896899167437,2.8747146638017238e-05,0.1278735251242322,3.431810725225252e-27,0.704791962187614
143.6,0.7034749198589894,0.7025272790285731,-0.0011151624185713471,0.5780513493507661,3.87327580241128e-05,0.12555235933835424,6.49996253972281e-27,0.7036424414471445
143.8,0.7025942519536269,0.7016466111232107,-0.0003211731945871321,0.5786486781502411,5.185869468579309e-05,0.12326724747287092,1.2244833798321607e-26,0.7019677843177978
144.0,0.7005075057638159,0.6995598649333997,-0.00021159379400270684,0.5786846272394344,6.899943630913062e-05,0.12101783205165896,2.2943822373250985e-26,0.6997714587274024
144.2,0.6983717461420431,0.6974241053116269,0.00036536398252662305,0.5781637521684914,9.123709685135725e-05,0.11880375206375755,4.276275526810745e-26,0.6970587413291003
144.4,0.6955532397523053,0.6946055989218891,0.0007688863649760735,0.5770921689621151,0.00011990030948959701,0.11662464328530833,7.928092116034445e-26,0.693836712556913
144.6,0.6917340716117952,0.690786430781379,0.000672181291657914,0.5754775032778798,0.00015660762035761363,0.11448013859148369,1.462145998001587e-25,0.6901142494897211
144.8,0.6876591752667179,0.6867115344363017,0.0008095176309877994,0.5733288333426592,0.00020331520410432925,0.11236986825855043,2.6825489638717124e-25,0.6859020168053139
145.0,0.6832089497505095,0.6822613089200933,0.001048853009596229,0.5706566271642523,0.0002623684900202383,0.1102934602562245,4.896154794832441e-25,0.6812124559104971
145.2,0.6782120844397466,0.6772644436093304,0.001204671518662992,0.5674726745390035,0.0003365570212070982,0.1082505405304568,8.890552757035715e-25,0.6760597720906674
145.4,0.6726947631142587,0.6717471222838425,0.0012872030484385455,0.5637900143950554,0.00042917156353124283,0.10624073327681723,1.60614217316563e-24,0.6704599192354039
145.6,0.6670672934149471,0.6661196525845309,0.0016890712138141195,0.5596228580248206,0.0005440621412654572,0.10426366120463072,2.886929275770748e-24,0.6644305813707168
145.8,0.6607957712388033,0.6598481304083871,0.001856980535998476,0.5549865087694116,0.0006856953109545884,0.10231894579202236,5.162980206314473e-24,0.6579911498723886
146.0,0.6542289633775809,0.6532813225471646,0.0021186276867064535,0.5498972787222752,0.000859208606141033,0.10040620753204184,9.187387513439268e-24,0.6511626948604582
146.2,0.6469419595741666,0.6459943187437504,0.0020263898458355856,0.5443724030192219,0.00107045970866599,0.09852506617002683,1.626768879312711e-23,0.6439679288979148
146.4,0.639019584472047,0.6380719436416308,0.0016407828854164697,0.5384299522776749,0.0013260675461711643,0.09667514093236824,2.8662679940272737e-23,0.6364311607562143
146.6,0.6309274191654326,0.6299797783350164,0.0014015416466464092,0.5320887437395585,0.001633442201954333,0.09485605074685712,5.0255038298501605e-23,0.62857823668837
146.8,0.6223997278906515,0.6214520870602352,0.001015620669082451,0.5253682516598458,0.0020008002765446896,0.09306741445476231,8.768573418439466e-23,0.6204364663911528
147.0,0.6134367050560288,0.6124890642256126,0.00045453355813140917,0.5182885174670459,0.002437162185607283,0.09130885101482798,1.522577227361549e-22,0.6120345306674811
147.2,0.604367768684999,0.6034201278545828,1.7760111059805794e-05,0.510870060202657,0.002952327841522989,0.08957997969934298,2.6311474808555026e-22,0.603402367743523
147.4,0.5954396566011718,0.5944920157707556,-7.901950660849089e-05,0.5031337877246314,0.0035568272702690027,0.08788042028246382,4.525231899232204e-22,0.5945710352773641
147.6,0.5857450250191475,0.5847973841887313,-0.0007751611494888344,0.49510090913513793,0.0042618429821258685,0.08620979322095636,7.746053222497003e-22,0.5855725453382201
147.8,0.5757575049208997,0.5748098640904835,-0.0016298059635325712,0.4867928488659061,0.005079101360588898,0.08456771982752101,1.3197090546964094e-21,0.5764396700540161
148.0,0.5660573881053077,0.5651097472748915,-0.0020959689560905437,0.47823116282555184,0.006020730968548852,0.08295382243688136,2.2379376690003736e-21,0.567205716230982
148.2,0.5565217467134684,0.5555741058830522,-0.0023301621605716916,0.46943745698262485,0.007099086496206929,0.08136772456479209,3.777493514019343e-21,0.5579042680436239
148.4,0.5470502576901134,0.5461026168596972,-0.0024662810105637867,0.4604333087263766,0.008326538083739309,0.07980905106014502,6.346864034031682e-21,0.548568897870261
148.6,0.5386259203118243,0.5376782794814081,-0.0015545670088797925,0.45124019131437637,0.009715226925576966,0.07827742825033461,1.061519703136957e-20,0.5392328464902879
148.8,0.529680892004118,0.5287332511737018,-0.0011954239625775465,0.4418794016826707,0.011276789373563018,0.07677248408004567,1.7673553933404837e-20,0.5299286751362794
149.0,0.5217363735647979,0.5207887327343816,0.00010083946653527409,0.43237199186050673,0.013022053163701875,0.0752938482436378,2.929275028484869e-20,0.5206878932678464
149.2,0.5134302570026119,0.5124826161721957,0.0009420488169281649,0.42273870419770426,0.01496071084628432,0.07384115231127897,4.833371780146463e-20,0.5115405673552675
149.4,0.5058446495233793,0.5048970086929631,0.0023820913209062766,0.4129999105793252,0.017100976943733515,0.07241402984899799,7.939758814217917e-20,0.5025149173720568
149.6,0.4976692931224845,0.4967216522920683,0.0030847432599989677,0.4031755557691506,0.019449236730104565,0.07101211653281418,1.2985080175250663e-19,0.49363690903206936
149.8,0.4893467753720241,0.48839913454160794,0.0034692835409175227,0.39328510499113317,0.02200969575245768,0.06963505025709955,2.114342022187802e-19,0.4849298510006904
150.0,0.4810494986085482,0.480101857778132,0.0036878504856724947,0.3833474958266606,0.024784040228463047,0.06828247123733591,3.4277733081072793e-19,0.47641400729245953
150.5,0.4610602423292609,0.46011260149884475,0.004050259945291956,0.3584161714683701,0.03264035366806868,0.065005816417114,1.1256496697151447e-18,0.4560623415535528
151.0,0.4414233392677413,0.44047569843732515,0.0033185860139149925,0.33357281094804125,0.04170983465742484,0.06187446681794405,3.59945726072411e-18,0.43715711242341015
151.5,0.42261131268355034,0.4216636718531342,0.0019747912975390247,0.3090601867521342,0.05174567879976725,0.058883015003693674,1.1212646879772092e-17,0.41968888055559517
152.0,0.4045742961097719,0.40362665527935576,0.00014803735192714385,0.285092184602061,0.06236026680632497,0.05602616651904266,3.4041425512582585e-17,0.4034786179274286
152.5,0.38805868022599,0.38711103939557384,-0.0010838965527086852,0.2618526936423679,0.07304349653402512,0.05329874577188936,1.0076817189332752e-16,0.3881949359482825
153.0,0.3727430528432447,0.37179541201282856,-0.0015972523877387235,0.23949537313939787,0.08320159034293965,0.05069570091822948,2.9096395056681685e-16,0.3733926644005673
153.5,0.3573519697606401,0.35640432893022395,-0.0021645888924508028,0.21814418856070786,0.09221262143295804,0.04821210782900802,8.198527854131417e-16,0.35856891782267475
154.0,0.34158985408138404,0.3406422132509679,-0.0025869426990130506,0.1978945985191059,0.09949138421617058,0.04584317321470215,2.2552300943406465e-15,0.34322915594998094
154.5,0.32487475877256017,0.323927117942144,-0.0030262905677729823,0.1788152690131787,0.1045539025171276,0.04358423697960468,6.0586837254315694e-15,0.326953408509917
155.0,0.30715268200036305,0.3062050411699469,-0.0032473785936396604,0.16095019188592594,0.10707145400365453,0.041430773873990266,1.590263595603663e-14,0.30945241976358656
155.5,0.2889088500122931,0.28796120918187695,-0.0026439189675719343,0.1443210895287325,0.1069056441121049,0.039378394508570724,4.079728059454813e-14,0.2906051281494489
156.0,0.2698012162531703,0.2688535754227541,-0.0016186864142983537,0.1289299965934946,0.1041194194515384,0.03742284579191711,1.0233622127746384e-13,0.2704722618370525
156.5,0.25010195659332973,0.24915431576291355,-0.00013080229782289066,0.1147619208573922,0.09896318635522922,0.03556001084786395,2.5108768440427537e-13,0.24928511806073644
157.0,0.22984269697491616,0.22889505614449998,0.0014822260217657035,0.10178749848128146,0.09183942317451821,0.0337859084663318,6.028068829883888e-13,0.22741283012273428
