wavelength,absorbance,absorbance_bk,residual_3gauss
117.0,0.5917138589708149,0.5914413107259573,-0.011198392843899119
117.5,0.590859285929697,0.5905867376848395,-0.007074722994987792
118.0,0.5886095644737249,0.5883370162288674,-0.003603750732766864
118.5,0.5819701445386555,0.5816975962937979,-0.003822699089872761
119.0,0.5808630867352191,0.5805905384903616,0.0021464525822354474
119.5,0.5732794222415672,0.5730068739967097,0.002249545422365884
120.0,0.5647018248184191,0.5644292765735616,0.0019230655620208204
120.5,0.5604228395747438,0.5601502913298863,0.006412445266930522
121.0,0.5507951653277876,0.55052261708293,0.006022320250078761
121.5,0.5417821854742101,0.5415096372293525,0.006666919814207417
122.0,0.5309579099679882,0.5306853617231306,0.0058697343905522725
122.5,0.5205393203722402,0.5202667721273826,0.005795436386077268
123.0,0.5090497018723976,0.5087771536275401,0.004912626478847826
123.5,0.4954622114068066,0.495189663161949,0.0021366499470060196
124.0,0.48320603376362486,0.4829334855187673,0.0008348407489444654
124.5,0.4705049967569587,0.47023244851210116,-0.0008359158207563167
125.0,0.45796493351157386,0.4576923852667163,-0.0023429771270829236
125.5,0.44580943404630347,0.4455368858014459,-0.0035433953476085023
126.0,0.43428346268559487,0.4340109144407373,-0.004281474016547715
126.5,0.42279253050362514,0.4225199822587676,-0.0052506418725649096
127.0,0.4127385744735912,0.41246602622873363,-0.005158376188044378
127.5,0.4028589706091888,0.40258642236433123,-0.00538761864530013
128.0,0.39499050767152105,0.3947179594266635,-0.004232721287975694
128.5,0.3883156784216427,0.38804313017678516,-0.0026524329658355605
129.0,0.38250882843375994,0.3822362801889024,-0.0011222683276851386
129.5,0.3775776195687434,0.37730507132388585,0.0002092885646177156
130.0,0.37370173878064017,0.3734291905357826,0.0013627279348950028
130.5,0.37155240754327096,0.3712798592984134,0.0028511609910915614
131.0,0.37058422711259387,0.3703116788677363,0.0039771455142672
131.5,0.37079599746788977,0.3705234492230322,0.004599203890430115
132.0,0.37218787341597376,0.3719153251711162,0.004595207169804272
132.5,0.3755623332844764,0.37528978503961885,0.004669849656801728
133.0,0.3806248501120431,0.38035230186718555,0.004461801988680014
133.5,0.3872772758317716,0.387004727586914,0.0038432153029875904
134.0,0.3950429028854852,0.39477035464062765,0.002350186415786104
134.5,0.4049760404624464,0.40470349221758883,0.0010966723431660719
135.0,0.416246445387539,0.41597389714268146,-0.0006381254490414046
135.5,0.42912897807918365,0.4288564298343261,-0.002418804068186342
136.0,0.44418125300831646,0.4439087047634589,-0.0034766547238636036
136.5,0.4607468158863202,0.46047426764146265,-0.00420898410878362
137.0,0.4792053081884046,0.47893275994354706,-0.003933406796621963
137.5,0.498817669319772,0.49854512107491444,-0.003048960200851103
138.0,0.5194699891446063,0.5191974408997487,-0.0013002302059802462
138.2,0.5276057854510202,0.5273332372061627,-0.0006882993692490791
138.4,0.5358399455614942,0.5355673973166366,8.155226354211731e-05
138.6,0.5439082515568043,0.5436357033119468,0.0007707322587942045
138.8,0.5516563690187407,0.5513838207738831,0.001250554847223806
139.0,0.5595964402814686,0.559323892036611,0.002058720059163077
139.2,0.566829760687118,0.5665572124422604,0.0023218756821287156
139.4,0.5738659407861934,0.5735933925413358,0.0025746657335815604
139.6,0.5808299733761918,0.5805574251313342,0.0029666850848736326
139.8,0.5873523256474537,0.5870797774025961,0.0031524612308720945
140.0,0.5930450810116592,0.5927725327668016,0.0027674884815519496
140.2,0.5985697835495446,0.598297235304687,0.0024959681808814915
140.4,0.6039747157355339,0.6037021674906763,0.0024079862401497065
140.6,0.6080665392593485,0.6077939910144909,0.0013310583886700922
140.8,0.6124575809258229,0.6121850326809654,0.0008973256523965301
141.0,0.6163154279199168,0.6160428796750592,0.0002930648165037075
141.2,0.619250477977988,0.6189779297331305,-0.0008538401847699717
141.4,0.622281911595739,0.6220093633508814,-0.001507998491095952
141.6,0.6247883405241431,0.6245157922792856,-0.0022759296493947145
141.8,0.6268436566959782,0.6265711084511206,-0.003070273746855978
142.0,0.6291049114558857,0.6288323632110281,-0.0032219643896814754
142.2,0.6309648185850208,0.6306922703401633,-0.003327771045186889
142.4,0.6324295994357478,0.6321570511908903,-0.003372492531440008
142.6,0.6335751045204969,0.6333025562756394,-0.0032728675002544616
142.8,0.6348312980011444,0.6345587497562868,-0.0025931157444375463
143.0,0.635111616024198,0.6348390677793404,-0.0024155997428955134
143.2,0.6351829830146924,0.6349104347698349,-0.0019708227622857732
143.4,0.6344365237995696,0.634163975554712,-0.0018667261361249299
143.6,0.6337503914305481,0.6334778431856906,-0.001225866386467711
143.8,0.6324118586049292,0.6321393103600716,-0.0007633248472138643
144.0,0.6305145611007618,0.6302420128559042,-0.000389461926961876
144.2,0.6281541743090482,0.6278816260641906,-1.4235449900090735e-05
144.4,0.625128123773694,0.6248555755288364,0.00015251738205435128
144.6,0.6217271938257362,0.6214546455808786,0.00039269814331599484
144.8,0.6175917702129144,0.6173192219680569,0.0003362011516405694
145.0,0.6135936169069007,0.6133210686620432,0.0008427034117512999
145.2,0.6089850134256386,0.608712465180781,0.0011508170801447504
145.4,0.6032719860776161,0.6029994378327586,0.0007513383275542518
145.6,0.5978209143598505,0.597548366114993,0.000993874594250932
145.8,0.592102588407598,0.5918300401627404,0.0013309272158150698
146.0,0.5862905221358425,0.586017973890985,0.001916235466108751
146.2,0.5795763604489654,0.5793038122041079,0.0019202221238999728
146.4,0.5725903328632179,0.5723177846183604,0.0019504949400185323
146.6,0.5650509901933658,0.5647784419485082,0.001701642949976656
146.8,0.5570390493714406,0.556766501126583,0.0012291551928059752
147.0,0.5491093199267809,0.5488367716819234,0.0010614379727607037
147.2,0.5404459629957316,0.540173414750874,0.00035518414852586666
147.4,0.5318005937445541,0.5315280454996966,-0.00016639216789360312
147.6,0.5228117919524758,0.5225392437076183,-0.0008938885177818268
147.8,0.5140525971084028,0.5137800488635452,-0.0012840364328582377
148.0,0.505052301158525,0.5047797529136674,-0.0018376988230172087
148.2,0.49673533380917967,0.4964627855643221,-0.0016607470074792574
148.4,0.4883888884105848,0.48811634016572725,-0.001496169753309906
148.6,0.48047569251682826,0.4802031442719707,-0.0009110116418082348
148.8,0.47217039708846326,0.4718978488436057,-0.0007596693454598458
149.0,0.46512990684625555,0.464857358601398,0.0005867729404577249
149.2,0.4573802126510658,0.45710766440620826,0.0011277248048023325
149.4,0.4498400724068076,0.44956752416195006,0.0017571279773246906
149.6,0.4428004145551544,0.44252786631029684,0.0027432184964100714
149.8,0.4349528205425028,0.4346802722976452,0.0027573607792145682
150.0,0.42756930105848834,0.4272967528136308,0.003054159321340677
150.5,0.4097158047506895,0.40944325650583197,0.003522415159748382
151.0,0.39211100262242066,0.3918384543775631,0.0028994095552832833
151.5,0.37526747520797377,0.3749949269631162,0.0017202339499552965
152.0,0.35925866778026894,0.3589861195354114,0.00023112660823104703
152.5,0.3444841086980297,0.34421156045317214,-0.000862329196821221
153.0,0.3303849390951483,0.33011239085029076,-0.001715210991954208
153.5,0.3167060216455944,0.31643347340073685,-0.0021315314999714174
154.0,0.3027094679635105,0.30243691971865294,-0.0024092064211158615
154.5,0.28745932274771746,0.2871867745028599,-0.003113342988488532
155.0,0.2720583432229444,0.27178579497808686,-0.0028880541466568266
155.5,0.2557484616188546,0.25547591337399705,-0.002387905270153534
156.0,0.23877013318698656,0.23849758494212897,-0.00142946520985604
156.5,0.22092996730615183,0.22065741906129424,-0.0004129601197091215
157.0,0.20382719703716984,0.20355464879231225,0.0019334980039485417
157.5,0.18585172816122364,0.18557917991636605,0.003594035236261728
158.0,0.1678166549282399,0.16754410668338232,0.0049451158055413
158.5,0.14958282180177562,0.14931027355691803,0.005425958290932759
159.0,0.13152192818333083,0.13124937993847324,0.005039818123426326
159.5,0.11396956368539046,0.11369701544053287,0.0038336905064093735
160.0,0.09733629847475975,0.09706375022990216,0.002023114590004288
160.5,0.08147551386434526,0.08120296561948767,-0.0006385119541263834
161.0,0.06807515083959631,0.06780260259473872,-0.0024766109758793814
161.5,0.05566152617163851,0.05538897792678092,-0.004906760239337601
162.0,0.0452792047247997,0.04500665647994211,-0.006773356483607863
162.5,0.03673184345921916,0.03645929521436157,-0.008127741738447665
163.0,0.029624871565828156,0.02935232332097057,-0.00920271278824205
163.5,0.02436448564499418,0.024091937400136595,-0.0094275708679722
164.0,0.01999303710911426,0.019720488864256674,-0.009603066752083382
164.5,0.016252617806484373,0.015980069561626786,-0.009844497977566837
165.0,0.01376678253371657,0.013494234288858983,-0.009403500971782861
165.5,0.011509251993277675,0.011236703748420089,-0.009200389094048566
166.0,0.009929167592386169,0.009656619347528582,-0.008698206189740614
166.5,0.00850532672778448,0.008232778482926894,-0.008346740476503614
167.0,0.007529586627863985,0.007257038383006398,-0.007796854605363286
167.5,0.006706748233675152,0.006434199988817565,-0.007298214965069153
168.0,0.005944185927943072,0.005671637683085484,-0.006907408671127158
168.5,0.005406764572979364,0.005134216328121777,-0.006431045709396411
169.0,0.004891670056286758,0.004619121811429171,-0.006049274191863598
169.5,0.004397332742893061,0.004124784498035473,-0.005745527879995532
170.0,0.003998538871870566,0.0037259906270129786,-0.00543037794741808
170.5,0.0035701392853657024,0.0032975910405081154,-0.005217032717862863
171.0,0.0032085852971585616,0.0029360370523009746,-0.004999206381710867
171.5,0.0030829828237753554,0.0028104345789177684,-0.0045996206678053575
172.0,0.002936475865733324,0.002663927620875737,-0.004268290776987884
172.5,0.00256874021930006,0.002296191974442473,-0.004199785064213514
173.0,0.0024812300022640345,0.0022086817574064476,-0.003887793590475718
173.5,0.0025452091228341726,0.0022726608779765857,-0.003456957220273057
174.0,0.0024569953179073368,0.00218444707304975,-0.003207518151606559
174.5,0.0021771414467920782,0.001904593201934491,-0.0031760591122278244
175.0,0.002306290050304026,0.002033741805446439,-0.0027595894343756446
175.5,0.00225618967969404,0.001983641434836453,-0.002544485148297493
176.0,0.002723565360968575,0.0024510171161109882,-0.0018325871284887332
176.5,0.00263829550543854,0.002365747260580953,-0.0016930016543162249
177.0,0.0025292464816589087,0.0022566982368013217,-0.0015962487953951384
177.5,0.0022707651500118685,0.0019982169051542815,-0.0016677547233734241
178.0,0.0027830042627697373,0.0025104560179121504,-0.0009875091856798531
178.5,0.002557564682851963,0.002285016437994376,-0.001064400146513766
179.0,0.0027753416645815835,0.0025027934197239966,-0.0007183343325616676
179.5,0.0031011707961960066,0.0028286225513384196,-0.00028554439097013863
180.0,0.0032113484085687163,0.0029388001637111294,-9.100486905421748e-05
180.5,0.003160547288967102,0.002887999044109515,-8.143431537899247e-05
181.0,0.0031491587456572924,0.0028766105007997055,-5.785212544902243e-05
181.5,0.0032597165389003165,0.0029871682940427295,6.0963846863374815e-05
182.0,0.003333429535855424,0.003060881290997837,0.00011514215595901343
182.5,0.0036444103777601585,0.0033718621329025715,0.00037808667729317437
183.0,0.004022627531898739,0.0037500792870411516,0.0006795692994793615
183.5,0.003795693555223041,0.003523145310365454,0.0003476500836226571
184.0,0.003990525255153528,0.0037179770102959407,0.00041045057490404204
184.5,0.004301068410801004,0.004028520165943417,0.0005639628814348239
185.0,0.004181340507941275,0.003908792263083688,0.0002651387970347826
185.5,0.004545723792441563,0.004273175547583975,0.0004321839010715074
186.0,0.0043752508440115965,0.004102702599154009,5.079411702536233e-05
186.5,0.004680711494906407,0.00440816325004882,0.000137162144809291
187.0,0.004723334092825527,0.004450785847967939,-4.149094513325631e-05
187.5,0.004899985562135817,0.00462743731727823,-8.190845608890308e-05
188.0,0.0048464106772078495,0.004573862432350262,-0.00034178522416545426
188.5,0.005431614295954808,0.0051590660510972206,5.4366902095067185e-05
189.0,0.005459795521212893,0.005187247276355306,-8.310149510204479e-05
189.5,0.005377431412346864,0.005104883167489277,-0.0003021403089091875
190.0,0.005372416865239413,0.005099868620381825,-0.00041008379351325456
190.5,0.005643469833593291,0.005370921588735703,-0.00020443301020970674
191.0,0.0055785284892085965,0.005305980244351009,-0.0002945995028125273
191.5,0.005584545910757302,0.0053119976658997144,-0.0002721971629269411
192.0,0.005723596910845194,0.005451048665987606,-7.496397739777897e-05
192.5,0.0054018972991361856,0.005129349054278598,-0.00029771354994613877
193.0,0.005564320277370244,0.005291772032512657,2.2644141133391915e-06
193.5,0.005324764023780048,0.005052215778922461,-6.429837828786714e-05
194.0,0.005353108605712248,0.005080560360854661,0.00016847524747649976
194.5,0.005089359292683112,0.004816811047825525,0.00013594436527804288
195.0,0.005042029875004177,0.004769481630146589,0.0003415403979311086
195.5,0.004564269457234085,0.0042917212123764975,0.00013310325610649872
196.0,0.004763460750114862,0.004490912505257275,0.0006126803469656103
196.5,0.004445088230227056,0.004172539985369469,0.0005805775674650646
197.0,0.003980188227938273,0.0037076399830806863,0.000402967120017098
197.5,0.0035458459567676054,0.0032732977119100184,0.0002525122102393154
198.0,0.003332956258889119,0.003060408014031532,0.00031622275843985184
198.5,0.0027986481330054395,0.0025260998881478525,4.794172558620323e-05
199.0,0.002425973239613617,0.00215342499475603,-7.1936309742436e-05
199.5,0.0021114835819869998,0.0018389353371294126,-0.00014888614299954166
200.0,0.001730038195604358,0.0014574899507467708,-0.0003094685667888522
200.5,0.0012202248617200794,0.0009476766168624922,-0.0006159518124646205
201.0,0.0012123990319394303,0.0009398507870818432,-0.00043833053881233656
201.5,0.0009896488325682115,0.0007171005877106243,-0.0004934284825949022
202.0,0.0008114971814003144,0.0005389489365427273,-0.0005212690774030252
202.5,0.0008267578770534494,0.0005542096321958622,-0.0003722930862815265
203.0,0.0010055014044948233,0.0007329531596372361,-7.546411019150622e-05
203.5,0.0009310575656398664,0.0006585093207822793,-4.6332231186800555e-05
204.0,0.0005677748031466876,0.00029522655828910044,-0.0003193340523611925
204.5,0.0009177314668251516,0.0006451832219675645,0.00010886727066444313
205.0,0.0005081193752098348,0.00023557113035224767,-0.00023327711558461523
205.5,0.00040821791168426904,0.00013566966682668192,-0.00027526178288408596
206.0,0.0005811780886390952,0.0003086298437815081,-5.2768895587817306e-05
206.5,0.0009452743891889075,0.0006727261443313203,0.00035356516085952933
207.0,0.0005850188677630936,0.00031247062290550644,2.9251976522546522e-05
207.5,0.0007220636325310091,0.000449515387673422,0.00019684726010467786
208.0,0.0007850670823238429,0.0005125188374662558,0.00028581527644680314
208.5,0.0005264638398669137,0.00025391559500932654,4.930053121349903e-05
209.0,0.0008351811945800109,0.0005626329497224237,0.0003768486052441599
209.5,0.0008564708261523855,0.0005839225812947983,0.0004142441044084837
210.0,0.0008541521703767361,0.0005816039255191489,0.000425761400707653
210.5,0.000657843936115644,0.00038529569125805683,0.00024140411111692143
211.0,0.0008354320861073394,0.0005628838412497523,0.00042938118369574866
211.5,0.0007086816680301788,0.00043613342317259165,0.0003117266437232677
212.0,0.0006691265091581083,0.00039657826430052116,0.0002801967759670968
212.5,0.0009003370986311649,0.0006277888537735779,0.0005185449115790616
213.0,0.0002725482448575871,0.0,-0.00010284468175213858
213.5,0.0006864865482388817,0.0004139383033812946,0.0003168761971866072
214.0,0.0004715929248099925,0.00019904467995240536,0.0001072470251680626
214.5,0.0005658872733460102,0.00029333902848842304,0.00020636736468127343
215.0,0.0006113709930446513,0.00033882274818706413,0.0002563028982695095
215.5,0.0007864954794877262,0.0005139472346301392,0.0004355568745076263
216.0,0.0009345585641577984,0.0006620103193002113,0.0005874689955548144
216.5,0.0006479402561105949,0.0003753920112530078,0.0003044531700805998
217.0,0.0006468374449420384,0.0003742892000844513,0.0003067338533749121
217.5,0.0008835089651173225,0.0006109607202597353,0.0005465924328619637
218.0,0.0009721202759434464,0.0006995720310858592,0.0006382129657804487
218.5,0.001107585100484932,0.0008350368556273447,0.000776524658626649
219.0,0.0010277596631111472,0.00075521141825356,0.0006993967681105557
219.5,0.0012588451016566954,0.0009862968567991082,0.0009330415336979363
220.0,0.001423891192332702,0.0011513429474751147,0.0011005183084615484
