wavelength,absorbance,absorbance_bk,residual_3gauss
117.0,0.13272332081074728,0.12889818621621782,-0.003439120163007625
117.5,0.13255054486309306,0.1287254102685636,-0.0026804117247977155
118.0,0.13312348178247255,0.12929834718794309,-0.0010086819327644325
118.5,0.13082969461303143,0.12700456001850197,-0.002045214026561326
119.0,0.13028909270703462,0.12646395811250516,-0.0011792961800013158
119.5,0.1294451256838112,0.12561999108928174,-0.0004769789220839815
120.0,0.13013761066442422,0.12631247606989476,0.0018917872732973073
120.5,0.12996066870627543,0.12613553411174597,0.0035111065718956835
121.0,0.1275362444131875,0.12371110981865803,0.0029926544729146215
121.5,0.12547439128267548,0.12164925668814601,0.0029359347820163556
122.0,0.12374541840708277,0.11992028381255329,0.003300367949415531
122.5,0.12084088397860332,0.11701574938407384,0.002566191890580799
123.0,0.11813681042362709,0.11431167582909761,0.0020975464557308338
123.5,0.1150319093671972,0.11120677477266773,0.0012805273742336892
124.0,0.11187557585821983,0.10805044126369036,0.00045096874221473016
124.5,0.1096054011127622,0.10578026651823272,0.0005317057623067806
125.0,0.10636179281078927,0.10253665821625979,-0.00035308715530517343
125.5,0.10365475166894764,0.09982961707441816,-0.0007114237870959467
126.0,0.10099796872674048,0.097172834132211,-0.0010497192472961464
126.5,0.09811328214268598,0.09428814754815651,-0.0016686296934527167
127.0,0.0957887371258085,0.09196360253127903,-0.0018052496471934049
127.5,0.09413322183721635,0.09030808724268688,-0.0013786645845978718
128.0,0.0918707790109698,0.08804564441644032,-0.0016957266217375588
128.5,0.09037164499046664,0.08654651039593717,-0.0014199681192492292
129.0,0.08911685047712188,0.0852917158825924,-0.0011067867544772986
129.5,0.08807427169424258,0.0842491370997131,-0.000826985303926428
130.0,0.08665320684588605,0.08282807225135658,-0.0012115702817039609
130.5,0.08676255067543896,0.08293741608090949,-0.0003927256729151646
131.0,0.08693847818863441,0.08311334359410494,0.0001249476243539993
131.5,0.08719728071346422,0.08337214611893475,0.0003185535034405246
132.0,0.08720011154607998,0.08337497695155051,-0.00018689133178692585
132.5,0.0886568017732644,0.08483166717873493,0.00028694968493214734
133.0,0.0904297898298831,0.08660465523535363,0.0005773201620060259
133.5,0.09208263589060572,0.08825750129607625,0.00023053456402886974
134.0,0.0945248330609638,0.09069969846643433,0.00014834753919285015
134.5,0.09743765412789576,0.09361251953336629,1.5180553507618266e-05
135.0,0.10056364366844998,0.09673850907392051,-0.0004112699312114054
135.5,0.10406224453884828,0.10023710994431881,-0.0009436322918418144
136.0,0.10866554838991332,0.10484041379538385,-0.000808744095881872
136.5,0.11334992021440626,0.10952478561987679,-0.0009761198117187314
137.0,0.11829610853569894,0.11447097394116947,-0.001198417900608345
137.5,0.12396761335439284,0.12014247875986336,-0.0009341389830616748
138.0,0.12987348448926803,0.12604834989473856,-0.0005863613528201972
138.2,0.13294283490715003,0.12911770031262057,0.00023875025465824873
138.4,0.13549774803100886,0.1316726134364794,0.0005469638882890648
138.6,0.1380841956914735,0.13425906109694405,0.0008907851698693181
138.8,0.1400540938106452,0.13622895921611575,0.0006287555906707432
139.0,0.14270053416221587,0.1388753995676864,0.0010606566614511925
139.2,0.1448176623203962,0.14099252772586673,0.0009873596352426017
139.4,0.14693397868167798,0.14310884408714852,0.000944097862693366
139.6,0.14929014219523132,0.14546500760070186,0.0011782415934678547
139.8,0.15155343866029947,0.14772830406577,0.0013637372598369335
140.0,0.15339653526120792,0.14957140066667846,0.0011798330889981057
140.2,0.1553602363338642,0.15153510173933474,0.0011738062100735414
140.4,0.1573683131971302,0.15354317860260075,0.00127576425548942
140.6,0.15837548570977356,0.1545503511152441,0.00044659927605539274
140.8,0.1599451497065763,0.15612001511204684,0.00025568827236713276
141.0,0.16163068472207373,0.15780555012754427,0.000262174888730371
141.2,0.1627194326214109,0.15889429802688143,-0.00024107698618547335
141.4,0.1638905269998994,0.16006539240536993,-0.0005696777400902853
141.6,0.16560275633338667,0.1617776217388572,-0.0002598716025302428
141.8,0.16662769081806839,0.16280255622353892,-0.0005354312385218996
142.0,0.16736424974063768,0.16353911514610822,-0.000993110468871905
142.2,0.16840914251336503,0.16458400791883557,-0.001032221939537642
142.4,0.16945017321520395,0.1656250386206745,-0.0009613498731912418
142.6,0.1703240684071592,0.16649893381262973,-0.0009405381255634393
142.8,0.17132099405184964,0.16749585945732018,-0.000676787722654365
143.0,0.17175755747018223,0.16793242287565277,-0.0008510679651254627
143.2,0.1723087395739956,0.16848360497946613,-0.0007863958908088942
143.4,0.17297028563708444,0.16914515104255498,-0.00048545586990314527
143.6,0.17312427094189817,0.1692991363473687,-0.0005650430357063974
143.8,0.17361268467312083,0.16978755007859136,-0.00018248721828506564
144.0,0.17329988683003855,0.1694747522355091,-0.0004732026409866308
144.2,0.17342981992558806,0.1696046853310586,-0.00019348163122490103
144.4,0.17327713405790715,0.1694519994633777,-6.937376055010658e-05
144.6,0.17298461016082253,0.16915947556629307,4.0734416141746665e-05
144.8,0.17229808889939324,0.16847295430486378,-0.00011895345749299291
145.0,0.1717620850703351,0.16793695047580565,-6.0294864916432545e-06
145.2,0.1713944880011263,0.16756935340659684,0.00039482002310090025
145.4,0.17003510008931805,0.1662099654947886,-7.964407764932124e-05
145.6,0.1689932247345242,0.16516809013999473,-0.00012362114006514435
145.8,0.1680902324984074,0.16426509790387794,8.030230517061532e-05
146.0,0.16741079771315368,0.1635856631186242,0.0006123984818197648
146.2,0.16598927539586775,0.16216414080133829,0.0005021874158087081
146.4,0.16470546732632999,0.16088033273180052,0.00062421833019638
146.6,0.16318885547474649,0.15936372088021702,0.0006023219694177573
146.8,0.16134102386832427,0.1575158892737948,0.0003320553430208595
147.0,0.15974944793326873,0.15592431333873927,0.00039451831650449964
147.2,0.15780971895948032,0.15398458436495085,0.00017861005847044642
147.4,0.15612571400455882,0.15230057941002936,0.0002812359727537572
147.6,0.15369958061360228,0.14987444601907282,-0.0003026652678985442
147.8,0.15202339496545783,0.14819826037092837,-8.84158305709537e-05
148.0,0.14964260711553795,0.1458174725210085,-0.0005381002750071695
148.2,0.14773513366720856,0.1439099990726791,-0.00048141432850024035
148.4,0.14590310337319445,0.142077968778665,-0.0003238556483386723
148.6,0.1440141374158903,0.14018900282136085,-0.0002053752619629312
148.8,0.1417324264955157,0.13790729190098625,-0.0004692281776716156
149.0,0.1403443090572814,0.13651917446275194,0.00016368035571770467
149.2,0.13829870634787564,0.13447357175334618,0.00013530763461228057
149.4,0.13591963976686133,0.13209450517233187,-0.00023693037656860594
149.6,0.13490652855768803,0.13108139396315857,0.0007402171231138399
149.8,0.1325768394342588,0.12875170483972934,0.00037856210661987855
150.0,0.1307977650423441,0.12697263044781465,0.0005402295381878308
150.5,0.12572339331278115,0.12189825871825168,0.00017113113667881208
151.0,0.12125750561065832,0.11743237101612884,0.00016601246948284853
151.5,0.11716016753628608,0.1133350329417566,0.00026869301493676057
152.0,0.11305374398920832,0.10922860939467885,0.00011881379685245441
152.5,0.10908232226108788,0.10525718766655841,-9.072520810046725e-05
153.0,0.10534361657986772,0.10151848198533825,-0.0001874029533116689
153.5,0.10176372409842688,0.0979385895038974,-0.00015300077549602886
154.0,0.09811645463199814,0.09429132003746866,-0.00011515755561820884
154.5,0.09414865420608147,0.090323519611552,-0.0002338174605429344
155.0,0.08996893866198696,0.08614380406745749,-0.00032365453022387136
155.5,0.08554158389506977,0.0817164493005403,-0.000369295902113459
156.0,0.08069983054469033,0.07687469595016086,-0.0005179597714470158
156.5,0.07582708626703241,0.07200195167250294,-0.00040038257343916195
157.0,0.0712494618057848,0.06742432721125532,0.00026347512983722343
157.5,0.06612443993916246,0.062299305344632995,0.0005582706893896838
158.0,0.060754884773753605,0.05692975017922414,0.000694973007235547
158.5,0.05529918178100655,0.05147404718647708,0.0007300419716267312
159.0,0.049728703090658445,0.04590356849612898,0.0005320816570329456
159.5,0.044427433250920696,0.04060229865639123,0.0003897305522774369
160.0,0.039237720608256144,0.035412586013726675,6.39533299174877e-05
160.5,0.034437930133044546,0.030612795538515074,-0.00022994770053170327
161.0,0.030496162340511206,0.026671027745981735,-6.65463109895334e-05
161.5,0.026461409123453065,0.022636274528923594,-0.00041917146616160875
162.0,0.02288426497215052,0.01905913037762105,-0.0007409311333572872
162.5,0.01991224217624949,0.01608710758172002,-0.0008723156427260861
163.0,0.01753169378917003,0.013706559194640557,-0.0008028392612964494
163.5,0.015727466970766477,0.011902332376237005,-0.0005151128684508267
164.0,0.014009011227318912,0.01018387663278944,-0.00046223970525194336
164.5,0.01258616753170908,0.008761032937179608,-0.0003950469222869235
165.0,0.011858173063046424,0.008033038468516952,0.00012452226815388122
165.5,0.010715352380293955,0.0068902177857644836,2.3363579452282367e-05
166.0,0.010051858580472821,0.0062267239859433495,0.00022883668799640426
166.5,0.009482934511419024,0.005657799916889552,0.0003854403468676812
167.0,0.008805406752759402,0.00498027215822993,0.0003151364812371627
167.5,0.008649986542649347,0.004824851948119876,0.0006697801899136248
168.0,0.008576738137615624,0.0047516035430861525,0.0010269094088460637
168.5,0.00804920325869198,0.004224068664162509,0.0008642945750316345
169.0,0.007916400763204844,0.004091266168675372,0.0010424004408507112
169.5,0.00757116096511516,0.003746026370585689,0.000963173139690552
170.0,0.007240807622184886,0.003415673027655415,0.0008611370473528535
170.5,0.006978387291037617,0.0031532526965081455,0.0007949867130692869
171.0,0.006931510470411208,0.003106375875881737,0.0009167339736255902
171.5,0.007105345312616757,0.003280210718087286,0.0012349533295272475
172.0,0.006938979227352129,0.0031138446328226577,0.0011913469722791168
172.5,0.006464317754851085,0.002639183160321614,0.0008198065709366293
173.0,0.006551820290871737,0.002726685696342266,0.0009922793782289009
173.5,0.006987259795180543,0.0031621252006510717,0.00149563315005692
174.0,0.006733783940816346,0.0029086493462868747,0.0012938036363270304
174.5,0.006398357230815406,0.002573222636285935,0.000994309248394639
175.0,0.006463486626588259,0.0026383520320587875,0.0010800393208045167
175.5,0.006434501888859617,0.0026093672943301453,0.0010565899513204778
176.0,0.006663805161247003,0.0028386705667175316,0.0012765638002925372
176.5,0.0064726866748203915,0.0026475520802909202,0.0010614318153862367
177.0,0.006447526729395688,0.002622392134866217,0.0009977775233592418
177.5,0.0060562609199441095,0.0022311263254146383,0.0005538008879961151
178.0,0.006401593727053863,0.0025764591325243918,0.0008325665583749399
178.5,0.006489053751553831,0.00266391915702436,0.0008400892811881379
179.0,0.006571542894443899,0.0027464082999144276,0.0008299081601280556
179.5,0.006805647835421843,0.002980513240892372,0.0009594174732493882
180.0,0.006649209717173049,0.0028240751226435777,0.000687449364874406
180.5,0.006649495719607868,0.002824361125078397,0.0005624516220384306
181.0,0.006523340569088171,0.0026982059745587,0.0003026282754715979
181.5,0.006710791437412204,0.002885656842882733,0.0003495763839399535
182.0,0.006784230588377039,0.002959095993847568,0.00027739349922151864
182.5,0.00698171773603212,0.0031565831415026487,0.00032599816270765603
183.0,0.007021663962984741,0.0031965293684552694,0.00021577591387506555
183.5,0.006988665053588275,0.003163530459058804,3.337952598096716e-05
184.0,0.006723299976660871,0.0028981653821314,-0.00037850973638240467
184.5,0.006814020826843659,0.002988886232314188,-0.0004293323094581797
185.0,0.0069712439141891664,0.003146109319659695,-0.0004066009527347713
185.5,0.007079856254737852,0.003254721660208381,-0.00042343616283188916
186.0,0.007053395609597612,0.0032282610150681404,-0.0005644268463625419
186.5,0.007320070346577269,0.003494935752047798,-0.0003996486503879343
187.0,0.007187738178539732,0.003362603584010261,-0.0006197196797316259
187.5,0.0071774018764871085,0.0033522672819576373,-0.0007023344442237613
188.0,0.007239955358267584,0.003414820763738113,-0.0006955417721455129
188.5,0.0073134243325892676,0.0034882897380597963,-0.0006605218717323507
189.0,0.007398171421710208,0.0035730368271807366,-0.0005963922204822027
189.5,0.007479851049363203,0.0036547164548337316,-0.0005172568461270246
190.0,0.007492683229193967,0.0036675486346644955,-0.0004889299563002737
190.5,0.007542360597617928,0.0037172260030884567,-0.0004060198915517969
191.0,0.00750381166600257,0.0036786770714730987,-0.00039415094710793094
191.5,0.007462428370834511,0.0036372937763050396,-0.0003687156751825079
192.0,0.007817782748739293,0.003992648154209822,6.886633508312173e-05
192.5,0.007484956863054424,0.0036598222685249528,-0.00016749359100850202
193.0,0.007719767620658762,0.0038946330261292908,0.00017670213667645915
193.5,0.007760678580867117,0.003935543986337645,0.0003384812396222889
194.0,0.0078268009868638,0.004001666392334329,0.0005354352222013523
194.5,0.007598362809786976,0.003773228215257505,0.0004462206925123441
195.0,0.007396144577006174,0.003571009982476703,0.0003900263014286827
195.5,0.006714920609451724,0.002889786014922253,-0.00013995679318807306
196.0,0.007025461176585012,0.0032003265820555403,0.000325493973594652
196.5,0.0069293739713337694,0.0031042393768042982,0.000386497843242854
197.0,0.006699501502315392,0.0028743669077859204,0.000314488633288102
197.5,0.0066052836304692645,0.0027801490359397932,0.0003775942873126283
198.0,0.0066868772053191765,0.0028617426107897053,0.000614769946811236
198.5,0.006533335303040923,0.0027082007085114513,0.000613987075480426
199.0,0.006357187223065289,0.0025320526285358175,0.0005868199195480626
199.5,0.006053260168773569,0.002228125574244098,0.0004272704394617196
200.0,0.005694185054968356,0.001869050460438885,0.00020727443155237535
200.5,0.005619855573302916,0.0017947209787734452,0.0002661582960021432
201.0,0.0053855619716214045,0.0015604273770919333,0.00015876826492189312
201.5,0.00529012556442642,0.001464990969896949,0.00018359848285920302
202.0,0.004997848685997385,0.0011727140914679136,4.733029665782455e-06
202.5,0.004884105965189464,0.0010589713706599924,-2.5718656572850437e-06
203.0,0.0049994997132482245,0.0011743651187187533,0.00021225772188336383
203.5,0.004955865066795368,0.001130730472265897,0.0002611082590726905
204.0,0.0045790902232427455,0.0007539556287132743,-3.0011472462581354e-05
204.5,0.004418082732589551,0.0005929481380600797,-0.0001120144576241273
205.0,0.004524754522044244,0.0006996199275147732,6.723950844100953e-05
205.5,0.004613402746776625,0.0007882681522471536,0.00022231508399911393
206.0,0.004369883468621161,0.0005447488740916895,3.936609167381707e-05
206.5,0.004558770978391321,0.00073363638386185,0.00028328659408576365
207.0,0.004373780782782733,0.0005486461882532614,0.00014812642341652558
207.5,0.004444195502173757,0.000619060907644286,0.00026351044939519044
208.0,0.004507231469777766,0.0006820968752482945,0.000366999388107943
208.5,0.004305512548011614,0.00048037795348214235,0.00020155865719029351
209.0,0.004225406961572895,0.000400272367043424,0.0001538910483398094
209.5,0.003959584504023525,0.00013444990949405345,-8.300946898947238e-05
210.0,0.0041106928659052815,0.00028555827137581027,9.381588162446977e-05
210.5,0.004142748219900772,0.00031761362537130076,0.00014867921267808514
211.0,0.004056571721569969,0.00023143712704049762,8.268099462901117e-05
211.5,0.004227023296692526,0.0004018887021630551,0.00027094287397592823
212.0,0.004119725867917126,0.0002945912733876544,0.00017933137277018654
212.5,0.0040604753508775605,0.0002353407563480893,0.00013386773413864058
213.0,0.003848996256433333,2.3861661903861603e-05,-6.551631187491772e-05
213.5,0.004048734149878684,0.0002235995553492129,0.00014481433057238126
214.0,0.004082137647288248,0.0002570030527587765,0.00018748074200600402
214.5,0.00397090243380895,0.00014576783927947859,8.433478344877417e-05
215.0,0.0038251345945294712,0.0,-5.437668257165515e-05
215.5,0.004000125775912175,0.00017499118138270377,0.0001267643352943903
216.0,0.004267642427625218,0.00044250783309574644,0.00039963720915794747
216.5,0.004138622473528781,0.00031348787899930985,0.0002752803907493666
217.0,0.0038647661936156777,3.9631599086206466e-05,5.483317247457974e-06
217.5,0.003946362205862444,0.00012122761133297319,9.061339558505334e-05
218.0,0.003945906392169237,0.00012077179763976586,9.323589581093555e-05
218.5,0.004021922750618985,0.00019678815608951397,0.00017193572553736127
219.0,0.004494788562962427,0.0006696539684329559,0.0006471434671247833
219.5,0.004131084625376208,0.0003059500308467372,0.0002854864209081339
220.0,0.004608260432924705,0.0007831258383952338,0.0007644545422565853
