wavelength,absorbance,absorbance_bk,residual_3gauss,Gauss_1,Gauss_2,Gauss_3,Gauss_4,Gauss_fit
117.0,0.5917138589708149,0.5914413107259573,-0.011198392828805082,9.769742885946013e-07,4.186711101607924e-57,0.6026387265804738,8.194380431753476e-123,0.6026397035547624
117.5,0.590859285929697,0.5905867376848395,-0.007074722980499493,1.771768756675279e-06,3.309904759771109e-55,0.5976596888965823,3.2962007199184284e-120,0.597661460665339
118.0,0.5886095644737249,0.5883370162288674,-0.0036037507188910745,3.1538814798913606e-06,2.338795520216875e-53,0.5919376130662786,1.1807829117215417e-117,0.5919407669477584
118.5,0.5819701445386555,0.5816975962937979,-0.0038226990766144775,5.512832210427622e-06,1.480582097519275e-51,0.585514782538202,3.7755385364688742e-115,0.5855202953704124
119.0,0.5808630867352191,0.5805905384903616,0.002146452594872339,9.466026017601953e-06,8.416688584814544e-50,0.5784346198694716,1.0799684995462553e-112,0.5784440858954892
119.5,0.5732794222415672,0.5730068739967097,0.002249545434378386,1.5973219762858113e-05,4.3062579911075074e-48,0.5707413553425684,2.7695896810866663e-110,0.5707573285623313
120.0,0.5647018248184191,0.5644292765735616,0.0019230655734056024,2.6498021329384168e-05,1.9873183274620567e-46,0.5624797129788266,6.381448776308494e-108,0.562506211000156
120.5,0.5604228395747438,0.5601502913298863,0.006412445277683143,4.32305838132662e-05,8.290480820056982e-45,0.5536946154683898,1.323820433674816e-105,0.5537378460522031
121.0,0.5507951653277876,0.55052261708293,0.006022320260192338,6.93876416398137e-05,3.1329355568579e-43,0.5444309091810979,2.477598122304919e-103,0.5445002968227377
121.5,0.5417821854742101,0.5415096372293525,0.006666919823671291,0.00010960731585545125,1.0746724213410942e-41,0.5347331100898258,4.191706285768266e-101,0.5348427174056812
122.0,0.5309579099679882,0.5306853617231306,0.005869734399350124,0.00017045619419317883,3.352945586725844e-40,0.5246451711295873,6.423265879422792e-99,0.5248156273237805
122.5,0.5205393203722402,0.5202667721273826,0.005795436394185449,0.0002610644992792121,9.533568442347941e-39,0.5142102712339179,8.93211023227843e-97,0.5144713357331971
123.0,0.5090497018723976,0.5087771536275401,0.00491262648623314,0.0003939011057855672,2.4751205898262366e-37,0.5034706260355214,1.1292629135684294e-94,0.5038645271413069
123.5,0.4954622114068066,0.495189663161949,0.0021366499536238925,0.0005856932169080993,5.878458184130212e-36,0.492467319991417,1.3003812314435878e-92,0.4930530132083251
124.0,0.48320603376362486,0.4829334855187673,0.000834840754736943,0.0008584852703274056,1.2795359554159002e-34,0.48124015949370297,1.3663292081638085e-90,0.48209864476403036
124.5,0.4705049967569587,0.47023244851210116,-0.000835915815862065,0.0012408179729971479,2.5570623005134726e-33,0.4698275463549661,1.312219426555461e-88,0.47106836432796323
125.0,0.45796493351157386,0.4576923852667163,-0.0023429771231756047,0.0017689914782683615,4.6999157828485406e-32,0.45826637091162353,1.1538912849790077e-86,0.4600353623898919
125.5,0.44580943404630347,0.4455368858014459,-0.0035433953447926436,0.0024883572785756544,7.958695278591968e-31,0.4465919238676629,9.30583570961436e-85,0.44908028114623855
126.0,0.43428346268559487,0.4340109144407373,-0.004281474014942888,0.003454562551539015,1.2437214331605698e-29,0.43483782590414116,6.894248570570674e-83,0.4382923884556802
126.5,0.42279253050362514,0.4225199822587676,-0.005250641872302841,0.0047346501263260754,1.7965692314123412e-28,0.42303597400474435,4.69951719657921e-81,0.4277706241310704
127.0,0.4127385744735912,0.41246602622873363,-0.005158376189265346,0.006407899025022927,2.4026953760661753e-27,0.41121650339297605,2.952113340405641e-79,0.417624402417999
127.5,0.4028589706091888,0.40258642236433123,-0.005387618648146797,0.00856627707203424,2.979656954861e-26,0.3994077639404438,1.7115533580869415e-77,0.40797404101247803
128.0,0.39499050767152105,0.3947179594266635,-0.004232721292585617,0.011314370832945233,3.4317090364179507e-25,0.3876363098863039,9.17224033969199e-76,0.3989506807192491
128.5,0.3883156784216427,0.38804313017678516,-0.0026524329723315865,0.014768661445564532,3.676041932496407e-24,0.3759269017035522,4.5501325386710295e-74,0.39069556314911674
129.0,0.38250882843375994,0.3822362801889024,-0.001122268336164689,0.01905602956854765,3.6678463426012326e-23,0.36430251895651944,2.092468133492195e-72,0.38335854852506707
129.5,0.3775776195687434,0.37730507132388585,0.00020928855409418912,0.024311399755662773,3.41368479623798e-22,0.3527843830141289,8.932832614464023e-71,0.37709578276979167
130.0,0.37370173878064017,0.3734291905357826,0.0013627279223161204,0.03067447410011924,2.9677317651082125e-21,0.34139198851334723,3.544961803992798e-69,0.3720664626134665
130.5,0.37155240754327096,0.3712798592984134,0.002851160976506728,0.03828555581657219,2.4132865566312355e-20,0.3301431425053345,1.3095131690733374e-67,0.36842869832190667
131.0,0.37058422711259387,0.3703116788677363,0.00397714549779582,0.047280523108346996,1.838049964465423e-19,0.31905401026159347,4.508746303487229e-66,0.3663345333699405
131.5,0.37079599746788977,0.3705234492230322,0.004599203872270086,0.057785078583270824,1.3129205393179742e-18,0.3081391667674913,1.4488020886435297e-64,0.3659242453507621
132.0,0.37218787341597376,0.3719153251711162,0.00459520715023537,0.06990846503614356,8.806605101380277e-18,0.29741165298473726,4.350285004778913e-63,0.3673201180208808
132.5,0.3755623332844764,0.37528978503961885,0.004669849636186052,0.08373689938195102,5.554075693634324e-17,0.28688303602148174,1.2221327973006155e-61,0.3706199354034328
133.0,0.3806248501120431,0.38035230186718555,0.004461801967456991,0.09932702749200002,3.2974695476524593e-16,0.2765634724077282,3.216152790866988e-60,0.37589049989972856
133.5,0.3872772758317716,0.387004727586914,0.0038432152816638143,0.11669973857147568,1.845171064580837e-15,0.26646177373377267,7.937563696552889e-59,0.3831615123052502
134.0,0.3950429028854852,0.39477035464062765,0.002350186394920073,0.13583469427612102,9.742923485926744e-15,0.2565854739695768,1.839391391863839e-57,0.3924201682457076
134.5,0.4049760404624464,0.40470349221758883,0.0010966723233479247,0.15666592205147556,4.860017804129912e-14,0.24694089784271675,4.0067404264578703e-56,0.4036068198942409
135.0,0.416246445387539,0.41597389714268146,-0.0006381254672147008,0.17907879289852366,2.2928245649509397e-13,0.23753322971114318,8.213382638194695e-55,0.41661202260989616
135.5,0.42912897807918365,0.4288564298343261,-0.0024188040841382485,0.20290865149338902,1.0241564812469741e-12,0.2283665824240512,1.5861362487433202e-53,0.43127523391846434
136.0,0.44418125300831646,0.4439087047634589,-0.0034766547370679857,0.22794129377702355,4.336030762656352e-12,0.2194440657191673,2.888754789822652e-52,0.4473853595005269
136.5,0.4607468158863202,0.46047426764146265,-0.0042089841187944455,0.25391539798537816,1.741835303855937e-11,0.2107678537574606,4.9669224887304924e-51,0.4646832517602571
137.0,0.4792053081884046,0.47893275994354706,-0.003933406803101225,0.2805269152337888,6.64598012728971e-11,0.20233925144639972,8.070792447568087e-50,0.4828661667466483
137.5,0.498817669319772,0.49854512107491444,-0.003048960203594908,0.3074353217872266,2.410945082515672e-10,0.1941587592501882,1.2406054106186543e-48,0.5015940812785094
138.0,0.5194699891446063,0.5191974408997487,-0.0013002302049378578,0.3342715340424826,8.323804275915513e-10,0.18622613622982354,1.8057918847354193e-47,0.5204976711046866
138.2,0.5276057854510202,0.5273332372061627,-0.0006882993667155501,0.34489922970218545,1.3478824628335743e-09,0.18312230552281025,5.192113023604827e-47,0.5280215365728782
138.4,0.5358399455614942,0.5355673973166366,8.155226753681077e-05,0.35542793702433884,2.1658939456529598e-09,0.18005790585886702,1.4802151943970587e-46,0.5354858450490998
138.6,0.5439082515568043,0.5436357033119468,0.0007707322642089842,0.36583213324607206,3.4538516372051146e-09,0.17703283434781403,4.1844280189984304e-46,0.5428649710477378
138.8,0.5516563690187407,0.5513838207738831,0.0012505548540061584,0.37608628709129666,5.46610034881115e-09,0.17404697336247998,1.1730159088151709e-45,0.550133265919877
139.0,0.5595964402814686,0.559323892036611,0.0020587200672492756,0.3861649722774146,8.585880528382964e-09,0.1711001911060666,3.261024679562899e-45,0.5572651719693618
139.2,0.566829760687118,0.5665572124422604,0.002321875691444153,0.39604298119529674,1.338600773081655e-08,0.16819234216951182,8.991088463854753e-45,0.5642353367508163
139.4,0.5738659407861934,0.5735933925413358,0.0025746657440404164,0.40569543800275926,2.0715801902886423e-08,0.1653232680787342,2.458690551678849e-44,0.5710187267972954
139.6,0.5808299733761918,0.5805574251313342,0.002966685096379984,0.41509791037878196,3.1824538945073266e-08,0.1624927978316334,6.668898419954323e-44,0.5775907400349543
139.8,0.5873523256474537,0.5870797774025961,0.003152461243319471,0.4242265191992916,4.853524443609219e-08,0.15970074842474055,1.7942707282000357e-43,0.5839273161592766
140.0,0.5930450810116592,0.5927725327668016,0.002767488494824777,0.4330580454152923,7.348723033595906e-08,0.15694692536945423,4.788839634910962e-43,0.5900050442719769
140.2,0.5985697835495446,0.598297235304687,0.0024959681948545365,0.4415700334404393,1.1047161882705496e-07,0.15423112319777435,1.26796037959379e-42,0.5958012671098325
140.4,0.6039747157355339,0.6037021674906763,0.0024079862546898534,0.4497408903870324,1.6489145697942245e-07,0.1515531259574971,3.330723335785419e-42,0.6012941812359864
140.6,0.6080665392593485,0.6077939910144909,0.0013310584036363426,0.45754998052684964,2.4438717324975947e-07,0.1489127076968317,8.680668074334791e-42,0.6064629326108546
140.8,0.6124575809258229,0.6121850326809654,0.0008973256676410024,0.4649777143955779,3.596793397591512e-07,0.14630963293840668,2.2447784749176738e-41,0.6112877070133244
141.0,0.6163154279199168,0.6160428796750592,0.00029306483187252486,0.4720056320062661,5.256942495470065e-07,0.14374365714267104,5.760012441975519e-41,0.6157498148431867
141.2,0.619250477977988,0.6189779297331305,-0.0008538401694355713,0.47861647968796167,7.630539271931078e-07,0.14121452716067717,1.4666503946954884e-40,0.619831769902566
141.4,0.622281911595739,0.6220093633508814,-0.0015079984759590603,0.4847942801195357,1.1000310294381778e-06,0.1387219816762754,3.70600930049405e-40,0.6235173618268405
141.6,0.6247883405241431,0.6245157922792856,-0.0022759296346209767,0.4905243951854518,1.5750907189614323e-06,0.1362657516377358,9.293652094877687e-40,0.6267917219139065
141.8,0.6268436566959782,0.6265711084511206,-0.003070273732612927,0.4957935813389802,2.240165915469684e-06,0.13384556067883782,2.3130734453748648e-39,0.6296413821837336
142.0,0.6291049114558857,0.6288323632110281,-0.0032219643761371985,0.5005900372186464,3.164839042597098e-06,0.13146112552947628,5.7139766492546466e-39,0.6320543275871653
142.2,0.6309648185850208,0.6306922703401633,-0.0033277710325083643,0.5049034433249053,4.4416319288195244e-06,0.12911215641583754,1.401058490431091e-38,0.6340200413726716
142.4,0.6324295994357478,0.6321570511908903,-0.003372492519792214,0.5087249936254787,6.192634988719329e-06,0.12679835745021503,3.4100865349817567e-38,0.6355295437106825
142.6,0.6335751045204969,0.6333025562756394,-0.003272867489798492,0.512047419018979,8.577735921170155e-06,0.12451942701053763,8.239260748632677e-38,0.6365754237654379
142.8,0.6348312980011444,0.6345587497562868,-0.0025931157353288325,0.514865002646743,1.1804735184127387e-05,0.12227505810968849,1.976273369487689e-37,0.6371518654916156
143.0,0.635111616024198,0.6348390677793404,-0.002415599735282492,0.5171735871016793,1.6141658229768285e-05,0.12006493875471387,4.706128163802082e-37,0.6372546675146229
143.2,0.6351829830146924,0.6349104347698349,-0.0019708227563081104,0.5189705736399401,2.1931590195787293e-05,0.11788875229600702,1.1126544449296645e-36,0.636881257526143
143.4,0.6344365237995696,0.634163975554712,-0.0018667261319111894,0.5202549135557943,2.961036424614871e-05,0.11574617776658273,2.6119110542071885e-36,0.6360307016866232
143.6,0.6337503914305481,0.6334778431856906,-0.0012258663841338002,0.5210270919318851,3.9727426396004e-05,0.11363689021154318,6.088068134106672e-36,0.6347037095698244
143.8,0.6324118586049292,0.6321393103600716,-0.0007633248468604803,0.5212891040256241,5.2970173457195286e-05,0.11156056100785082,1.4091104227488816e-35,0.6329026352069321
144.0,0.6305145611007618,0.6302420128559042,-0.0003894619286725076,0.5210444245975113,7.019201252856165e-05,0.10951685817453678,3.2387404442250597e-35,0.6306314747845767
144.2,0.6281541743090482,0.6278816260641906,-1.4235453738686843e-05,0.5202979705283969,9.244431607423083e-05,0.10750544667345818,7.39254341525827e-35,0.6278958615179293
144.4,0.625128123773694,0.6248555755288364,0.00015251737604582427,0.5190560571098307,0.00012101234221586826,0.10552598870074405,1.675788127037336e-34,0.6247030581527906
144.6,0.6217271938257362,0.6214546455808786,0.0003926981351194403,0.5173263484245427,0.000157455052158758,0.10357814396905758,3.7728759292953156e-34,0.6210619474457592
144.8,0.6175917702129144,0.6173192219680569,0.00033620114126498013,0.515117802262571,0.0002036485834095953,0.1016615699808113,8.436740096298408e-34,0.6169830208267919
145.0,0.6135936169069007,0.6133210686620432,0.0008427033992343125,0.5124406100425737,0.0002618329277512454,0.09977592229248389,1.8738979379351572e-33,0.6124783652628089
145.2,0.6089850134256386,0.608712465180781,0.0011508170655549765,0.5093061322273056,0.00033466111775124526,0.09792085477016917,4.13434333324555e-33,0.6075616481152261
145.4,0.6032719860776161,0.6029994378327586,0.000751338310993388,0.5057268297372124,0.00042524994803831224,0.09609601983651456,9.06100895857516e-33,0.6022480995217652
145.6,0.5978209143598505,0.597548366114993,0.0009938745758547585,0.5017161918765547,0.0005372309533903943,0.09430106870919312,1.972767528664618e-32,0.5965544915391382
145.8,0.592102588407598,0.5918300401627404,0.0013309271957554492,0.4972886612925587,0.0006748000433695166,0.09253565163105672,4.267016833762137e-32,0.590499112966985
146.0,0.5862905221358425,0.586017973890985,0.00191623544459385,0.49245955648994943,0.0008427638643128383,0.09079941809212883,9.16941242926124e-32,0.5841017384463911
146.2,0.5795763604489654,0.5793038122041079,0.0019202221011744847,0.4872449924209483,0.0010465806383987873,0.08909201704358632,1.9577030846759508e-31,0.5773835901029334
146.4,0.5725903328632179,0.5723177846183604,0.0019504949163630103,0.4816617996646771,0.0012923929334379381,0.0874130971038824,4.152977918071053e-31,0.5703672897019973
146.6,0.5650509901933658,0.5647784419485082,0.0017016429257057375,0.47572744270014544,0.0015870495654791213,0.08576230675717794,8.753849217749435e-31,0.5630767990228025
146.8,0.5570390493714406,0.556766501126583,0.0012291551682669377,0.4694599377636904,0.0019381136504053903,0.08413929454422021,1.8335137124105995e-30,0.555537345958316
147.0,0.5491093199267809,0.5488367716819234,0.0010614379483291358,0.46287777076548065,0.002353853722269008,0.08254370924584459,3.816223450357304e-30,0.5477753337335942
147.2,0.5404459629957316,0.540173414750874,0.0003551841246015597,0.4559998157203551,0.0028432148466766625,0.08097520005924069,7.893446886337304e-30,0.5398182306262724
147.4,0.5318005937445541,0.5315280454996966,-0.0001663921908919841,0.4488452541265679,0.003415766796868966,0.07943341676715167,1.6225624954715193e-29,0.5316944376905886
147.6,0.5228117919524758,0.5225392437076183,-0.0008938885394230711,0.44143349570191615,0.0040816266449660585,0.07791800990015915,3.3147934116826304e-29,0.5234331322470414
147.8,0.5140525971084028,0.5137800488635452,-0.0012840364527065828,0.43378410086072955,0.004851353563314262,0.07642863089220803,6.730542888682438e-29,0.5150640853162518
148.0,0.505052301158525,0.5047797529136674,-0.0018376988406405559,0.4259167052876509,0.005735814237121224,0.07496493222953579,1.3583149646394032e-28,0.506617451754308
148.2,0.49673533380917967,0.4964627855643221,-0.0016607470224583865,0.41785094693510794,0.006746018058520529,0.07352656759315201,2.7247437315395494e-28,0.4981235325867805
148.4,0.4883888884105848,0.48811634016572725,-0.0014961697652483563,0.4096063957415344,0.007892922194407988,0.07211319199503316,5.433047685520247e-28,0.4896125099309756
148.6,0.48047569251682826,0.4802031442719707,-0.0009110116503419641,0.4012024863366789,0.009187207677452774,0.07072446190818102,1.0768911416231683e-27,0.48111415592231266
148.8,0.47217039708846326,0.4718978488436057,-0.0007596693502683882,0.39265845396926646,0.010639028833911521,0.06936003539069607,2.121915797126201e-27,0.4726575181938741
149.0,0.46512990684625555,0.464857358601398,0.0005867729396423216,0.38399327386114185,0.012257739596587587,0.0680195722040262,4.1565214786848594e-27,0.46427058566175566
149.2,0.4573802126510658,0.45710766440620826,0.001127724808185293,0.3752256041608003,0.014051601511690959,0.06670273392553171,8.094589127461996e-27,0.45597993959802297
149.4,0.4498400724068076,0.44956752416195006,0.0017571279850402965,0.36637373263859085,0.016027479482796234,0.06540918405552268,1.5672551724648603e-26,0.44781039617690976
149.6,0.4428004145551544,0.44252786631029684,0.0027432185085142224,0.3574555272356671,0.018190532447200577,0.0641385881189149,3.017045305341965e-26,0.4397846478017826
149.8,0.4349528205425028,0.4346802722976452,0.0027573607956795088,0.34848839054941216,0.020543907190906156,0.06289061376164741,5.774815798089225e-26,0.4319229115019657
150.0,0.42756930105848834,0.4272967528136308,0.0030541593420502777,0.339489218309757,0.023088444319812485,0.061664930842011044,1.099070277773769e-25,0.4242425934715805
150.5,0.4097158047506895,0.40944325650583197,0.0035224151899779788,0.31695700852958486,0.030267729796465147,0.058696102989803975,5.358600488161174e-25,0.405920841315854
151.0,0.39211100262242066,0.3918384543775631,0.002899409592422131,0.29456430451605853,0.038515242071073666,0.05585949819800879,2.5235274805439785e-24,0.38893904478514096
151.5,0.37526747520797377,0.3749949269631162,0.0017202339903313324,0.2725251846479464,0.047599347759692774,0.053150160565145696,1.1485459768078741e-23,0.37327469297278487
152.0,0.35925866778026894,0.3589861195354114,0.0002311266475967244,0.25102702969994134,0.05716472285209417,0.050563240335779115,5.054994343500181e-23,0.35875499288781465
152.5,0.3444841086980297,0.34421156045317214,-0.000862329162659714,0.23022972510013182,0.06675016545970654,0.048093999055993514,2.1526259496379003e-22,0.34507388961583185
153.0,0.3303849390951483,0.33011239085029076,-0.0017152109664767545,0.21026564341800297,0.07582414457191106,0.04573781382685347,8.874241632529367e-22,0.3318276018167675
153.5,0.3167060216455944,0.31643347340073685,-0.0021315314853810885,0.19124030511764784,0.08383451903985562,0.04349018072861452,3.543590129690135e-21,0.31856500488611794
154.0,0.3027094679635105,0.30243691971865294,-0.002409206417989085,0.17323360668442736,0.0902658019672599,0.04134671748495476,1.3713103058248432e-20,0.304846126136642
154.5,0.28745932274771746,0.2871867745028599,-0.0031133429957072023,0.15630150199823034,0.0946954500673648,0.03930316543297199,5.1455792419432156e-20,0.2903001174985671
155.0,0.2720583432229444,0.27178579497808686,-0.00288805416163479,0.1404780245071089,0.0968404337714413,0.03735539086117147,1.8731010124434412e-19,0.27467384913972165
155.5,0.2557484616188546,0.25547591337399705,-0.00238790528930527,0.12577754347012343,0.096586889419009,0.03549938577416988,6.618119479929212e-19,0.2578638186633023
156.0,0.23877013318698656,0.23849758494212897,-0.0014294652292081989,0.11219715636696012,0.09399862566498528,0.03373126813939179,2.270746251415536e-18,0.23992705017133717
156.5,0.22092996730615183,0.22065741906129424,-0.0004129601355321588,0.0997191306090813,0.08930396692009446,0.03204728166765065,7.569609043603324e-18,0.2210703791968264
157.0,0.20382719703716984,0.20355464879231225,0.0019334979946050435,0.08831332008739791,0.08286403553410214,0.030443795176207128,2.452762966537982e-17,0.2016211507977072
