wavelength,absorbance,absorbance_bk,residual_3gauss,Gauss_1,Gauss_2,Gauss_3,Gauss_4,Gauss_fit
117.0,0.5917138589708149,0.5914413107259573,-0.011198392843899119,9.769742855996632e-07,4.1867122691778e-57,0.6026387265955708,8.194345409749032e-123,0.6026397035698564
117.5,0.590859285929697,0.5905867376848395,-0.007074722994987792,1.7717687515174924e-06,3.309905651742772e-55,0.5976596889110758,3.296186938419844e-120,0.5976614606798273
118.0,0.5886095644737249,0.5883370162288674,-0.003603750732766864,3.1538814711807664e-06,2.338796129086539e-53,0.591937613080163,1.1807780823914836e-117,0.5919407669616342
118.5,0.5819701445386555,0.5816975962937979,-0.003822699089872761,5.512832195996528e-06,1.4805824697634828e-51,0.5855147825514747,3.775523432008129e-115,0.5855202953836707
119.0,0.5808630867352191,0.5805905384903616,0.0021464525822354474,9.46602599413978e-06,8.416690627788555e-50,0.578434619882132,1.0799642736224925e-112,0.5784440859081261
119.5,0.5732794222415672,0.5730068739967097,0.002249545422365884,1.5973219725412575e-05,4.3062589999105646e-48,0.5707413553546183,2.769579081612424e-110,0.5707573285743438
120.0,0.5647018248184191,0.5644292765735616,0.0019230655620208204,2.649802127069809e-05,1.987318776634044e-46,0.56247971299027,6.3814248916043875e-108,0.5625062110115407
120.5,0.5604228395747438,0.5601502913298863,0.006412445266930522,4.323058372292049e-05,8.290482627287075e-45,0.5536946154792328,1.3238155882261438e-105,0.5537378460629557
121.0,0.5507951653277876,0.55052261708293,0.006022320250078761,6.938764150315255e-05,3.1329362153014063e-43,0.5444309091913482,2.477589254583583e-103,0.5445002968328513
121.5,0.5417821854742101,0.5415096372293525,0.006666919814207417,0.00010960731565227658,1.0746726390200226e-41,0.5347331100994929,4.1916916161282704e-101,0.5348427174151451
122.0,0.5309579099679882,0.5306853617231306,0.0058697343905522725,0.00017045619389621935,3.352946241022559e-40,0.5246451711386821,6.4232439007034976e-99,0.5248156273325784
122.5,0.5205393203722402,0.5202667721273826,0.005795436386077268,0.0002610644988523997,9.533570233947926e-39,0.5142102712424529,8.932080351761819e-97,0.5144713357413053
123.0,0.5090497018723976,0.5087771536275401,0.004912626478847826,0.0003939011051821854,2.475121037583883e-37,0.50347062604351,1.1292592205154344e-94,0.5038645271486922
123.5,0.4954622114068066,0.495189663161949,0.0021366499470060196,0.0005856932160689145,5.878459207397547e-36,0.49246731999887405,1.300377074389128e-92,0.493053013214943
124.0,0.48320603376362486,0.4829334855187673,0.0008348407489444654,0.0008584852691789299,1.2795361696403078e-34,0.4812401595006439,1.3663249388091074e-90,0.48209864476982284
124.5,0.4705049967569587,0.47023244851210116,-0.0008359158207563167,0.00124081797145024,2.5570627120931836e-33,0.4698275463614072,1.312215419072362e-88,0.4710683643328575
125.0,0.45796493351157386,0.4576923852667163,-0.0023429771270829236,0.001768991476217404,4.6999165097870335e-32,0.4582663709175818,1.153887841050333e-86,0.4600353623937992
125.5,0.44580943404630347,0.4455368858014459,-0.0035433953476085023,0.0024883572758985758,7.958696460915117e-31,0.4465919238731558,9.305808568138044e-85,0.4490802811490544
126.0,0.43428346268559487,0.4340109144407373,-0.004281474016547715,0.0034545625480984546,1.2437216105340045e-29,0.43483782590918657,6.894228922594595e-83,0.438292388457285
126.5,0.42279253050362514,0.4225199822587676,-0.0052506418725649096,0.004734650121971958,1.7965694772550597e-28,0.42303597400936055,4.699504110787639e-81,0.4277706241313325
127.0,0.4127385744735912,0.41246602622873363,-0.005158376188044378,0.006407899019596637,2.4026956913696305e-27,0.41121650339718135,2.952105309623495e-79,0.417624402416778
127.5,0.4028589706091888,0.40258642236433123,-0.00538761864530013,0.008566277065374637,2.979657329638206e-26,0.3994077639442567,1.7115488097292796e-77,0.40797404100963136
128.0,0.39499050767152105,0.3947179594266635,-0.004232721287975694,0.011314370824896385,3.431709449889555e-25,0.3876363098897428,9.172216530794954e-76,0.3989506807146392
128.5,0.3883156784216427,0.38804313017678516,-0.0026524329658355605,0.014768661435985203,3.6760423565161086e-24,0.3759269017066355,4.55012100289012e-74,0.3906955631426207
129.0,0.38250882843375994,0.3822362801889024,-0.0011222683276851386,0.019056029557322152,3.667846747381438e-23,0.36430251895926535,2.0924629526622367e-72,0.3833585485165875
129.5,0.3775776195687434,0.37730507132388585,0.0002092885646177156,0.024311399742712764,3.4136851564481583e-22,0.35278438301655535,8.932811016904674e-71,0.37709578275926814
130.0,0.37370173878064017,0.3734291905357826,0.0013627279348950028,0.03067447408541566,2.967732064329631e-21,0.3413919885154719,3.544953435283489e-69,0.3720664626008876
130.5,0.37155240754327096,0.3712798592984134,0.0028511609910915614,0.0382855558001469,2.4132867889646893e-20,0.3301431425071749,1.3095101509036655e-67,0.36842869830732183
131.0,0.37058422711259387,0.3703116788677363,0.0039771455142672,0.04728052309030268,1.838050133308105e-19,0.31905401026316643,4.5087361589833586e-66,0.3663345333534691
131.5,0.37079599746788977,0.3705234492230322,0.004599203890430115,0.0577850785637886,1.3129206543079243e-18,0.3081391667688135,1.4487989068014976e-64,0.3659242453326021
132.0,0.37218787341597376,0.3719153251711162,0.004595207169804272,0.06990846501548725,8.806605836210698e-18,0.29741165298582467,4.3502756800975837e-63,0.3673201180013119
132.5,0.3755623332844764,0.37528978503961885,0.004669849656801728,0.08373689936046708,5.554076134791983e-17,0.28688303602235,1.2221302408787752e-61,0.3706199353828171
133.0,0.3806248501120431,0.38035230186718555,0.004461801988680014,0.09932702747011282,3.297469796765933e-16,0.2765634724083924,3.2161462264138134e-60,0.37589049987850554
133.5,0.3872772758317716,0.387004727586914,0.0038432153029875904,0.1166997385496773,1.8451711970460955e-15,0.2664617737342473,7.937547889691511e-59,0.3831615122839264
134.0,0.3950429028854852,0.39477035464062765,0.002350186415786104,0.13583469425495595,9.74292414997687e-15,0.25658547396987585,1.8393878185045756e-57,0.39242016822484155
134.5,0.4049760404624464,0.40470349221758883,0.0010966723431660719,0.1566659220315205,4.860018118306934e-14,0.24694089784285367,4.0067328339685004e-56,0.40360681987442276
135.0,0.416246445387539,0.41597389714268146,-0.0006381254490414046,0.1790787928803628,2.292824705391131e-13,0.23753322971113078,8.2133674589352e-55,0.41661202259172286
135.5,0.42912897807918365,0.4288564298343261,-0.002418804068186342,0.20290865147758652,1.0241565406227112e-12,0.22836658242390176,1.586133390176377e-53,0.43127523390251243
136.0,0.44418125300831646,0.4439087047634589,-0.0034766547238636036,0.2279412937640939,4.336031000325383e-12,0.21944406571889255,2.8887497136032888e-52,0.4473853594873225
136.5,0.4607468158863202,0.46047426764146265,-0.00420898410878362,0.2539153979757563,1.741835394016437e-11,0.21076785375707163,4.96691397970059e-51,0.4646832517502463
137.0,0.4792053081884046,0.47893275994354706,-0.003933406796621963,0.28052691522780204,6.645980451750806e-11,0.2023392514459072,8.070778969999309e-50,0.482866166740169
137.5,0.498817669319772,0.49854512107491444,-0.003048960200851103,0.307435321785069,2.4109451933879805e-10,0.19415875924960202,1.2406033914616816e-48,0.5015940812757655
138.0,0.5194699891446063,0.5191974408997487,-0.0013002302059802462,0.33427153404419524,8.323804635994263e-10,0.18622613622915324,1.8057890206760302e-47,0.520497671105729
138.2,0.5276057854510202,0.5273332372061627,-0.0006882993692490791,0.34489922970542036,1.3478825197097915e-09,0.18312230552210879,5.192104873717378e-47,0.5280215365754117
138.4,0.5358399455614942,0.5355673973166366,8.155226354211731e-05,0.35542793702906467,2.165894034781497e-09,0.18005790585813583,1.480212894994295e-46,0.5354858450530945
138.6,0.5439082515568043,0.5436357033119468,0.0007707322587942045,0.3658321332522463,3.4538517757785293e-09,0.17703283434705447,4.184421586221768e-46,0.5428649710531526
138.8,0.5516563690187407,0.5513838207738831,0.001250554847223806,0.37608628709886543,5.466100562579693e-09,0.17404697336169336,1.1730141242688716e-45,0.5501332659266593
139.0,0.5595964402814686,0.559323892036611,0.002058720059163077,0.38616497228631297,8.585880855597092e-09,0.1711001911052542,3.2610197701584465e-45,0.557265171977448
139.2,0.566829760687118,0.5665572124422604,0.0023218756821287156,0.3960429812054485,1.3386008227829526e-08,0.16819234216867496,8.991075069340383e-45,0.5642353367601317
139.4,0.5738659407861934,0.5735933925413358,0.0025746657335815604,0.40569543801407754,2.07158026520452e-08,0.1653232680778741,2.458686927183027e-44,0.5710187268077542
139.6,0.5808299733761918,0.5805574251313342,0.0029666850848736326,0.41509791039116933,3.182454006573116e-08,0.16249279783075118,6.668888692127786e-44,0.5775907400464606
139.8,0.5873523256474537,0.5870797774025961,0.0031524612308720945,0.42422651921264043,4.853524609984021e-08,0.15970074842383747,1.794268138457887e-43,0.583927316171724
140.0,0.5930450810116592,0.5927725327668016,0.0027674884815519496,0.43305804542948545,7.348723278750144e-08,0.15694692536853141,4.788832795882306e-43,0.5900050442852497
140.2,0.5985697835495446,0.598297235304687,0.0024959681808814915,0.44157003345535034,1.1047162241255968e-07,0.15423112319683285,1.2679585879402302e-42,0.5958012671238055
140.4,0.6039747157355339,0.6037021674906763,0.0024079862401497065,0.4497408904025264,1.6489146218467362e-07,0.15155312595653803,3.330718679284897e-42,0.6012941812505266
140.6,0.6080665392593485,0.6077939910144909,0.0013310583886700922,0.457549980542784,2.4438718075102745e-07,0.14891270769585613,8.680656067309576e-42,0.6064629326258208
140.8,0.6124575809258229,0.6121850326809654,0.0008973256523965301,0.46497771441180274,3.5967935049039303e-07,0.14630963293741558,2.2447754030307112e-41,0.6112877070285688
141.0,0.6163154279199168,0.6160428796750592,0.0002930648165037075,0.4720056320226253,5.256942647878197e-07,0.1437436571416654,5.760004643803089e-41,0.6157498148585555
141.2,0.619250477977988,0.6189779297331305,-0.0008538401847699717,0.4786164797042937,7.630539486827584e-07,0.14121452715965807,1.4666484303324103e-40,0.6198317699179005
141.4,0.622281911595739,0.6220093633508814,-0.001507998491095952,0.4847942801356743,1.100031059522024e-06,0.13872198167524358,3.706004390110852e-40,0.6235173618419774
141.6,0.6247883405241431,0.6245157922792856,-0.0022759296493947145,0.49052439520122726,1.5750907607771734e-06,0.13626575163669227,9.293639913487543e-40,0.6267917219286803
141.8,0.6268436566959782,0.6265711084511206,-0.003070273746855978,0.4957935813542199,2.2401659731819036e-06,0.1338455606777835,2.313070446287208e-39,0.6296413821979766
142.0,0.6291049114558857,0.6288323632110281,-0.0032219643896814754,0.500590037233176,3.1648391216897488e-06,0.131461125528412,5.713969320754134e-39,0.6320543276007096
142.2,0.6309648185850208,0.6306922703401633,-0.003327771045186889,0.5049034433385496,4.441632036457002e-06,0.12911215641476403,1.401056712981354e-38,0.6340200413853502
142.4,0.6324295994357478,0.6321570511908903,-0.003372492531440008,0.5087249936380629,6.192635134187494e-06,0.1267983574491332,3.4100822558245236e-38,0.6355295437223303
142.6,0.6335751045204969,0.6333025562756394,-0.0032728675002544616,0.5120474190303292,8.577736116409504e-06,0.12451942700944824,8.239250522295133e-38,0.6365754237758938
142.8,0.6348312980011444,0.6345587497562868,-0.0025931157444375463,0.5148650026566877,1.1804735444370463e-05,0.12227505810859228,1.9762709434080693e-37,0.6371518655007243
143.0,0.635111616024198,0.6348390677793404,-0.0024155997428955134,0.51717358711005,1.6141658574293133e-05,0.12006493875361159,4.706122449871768e-37,0.6372546675222359
143.2,0.6351829830146924,0.6349104347698349,-0.0019708227622857732,0.5189705736465725,2.1931590648797654e-05,0.11788875229489934,1.1126531088525685e-36,0.6368812575321207
143.4,0.6344365237995696,0.634163975554712,-0.0018667261361249299,0.5202549135605288,2.961036483778984e-05,0.11574617776547033,2.6119079523888402e-36,0.636030701690837
143.6,0.6337503914305481,0.6334778431856906,-0.001225866386467711,0.521027091934568,3.972742716351948e-05,0.11363689021042678,6.088060984027372e-36,0.6347037095721583
143.8,0.6324118586049292,0.6321393103600716,-0.0007633248472138643,0.5212891040261083,5.2970174446226733e-05,0.11156056100673097,1.4091087861726644e-35,0.6329026352072855
144.0,0.6305145611007618,0.6302420128559042,-0.000389461926961876,0.5210444245956574,7.019201379458693e-05,0.10951685817341414,3.238736724476784e-35,0.6306314747828661
144.2,0.6281541743090482,0.6278816260641906,-1.4235449900090735e-05,0.5202979705240732,9.244431768413027e-05,0.10750544667233333,7.392535019427032e-35,0.6278958615140907
144.4,0.625128123773694,0.6248555755288364,0.00015251738205435128,0.5190560571029149,0.0001210123442495992,0.10552598869961766,1.6757862450902308e-34,0.6247030581467821
144.6,0.6217271938257362,0.6214546455808786,0.00039269814331599484,0.5173263484149214,0.00015745505471111,0.10357814396793011,3.772871739765878e-34,0.6210619474375626
144.8,0.6175917702129144,0.6173192219680569,0.0003362011516405694,0.5151178022501411,0.0002036485865919851,0.10166156997968326,8.43673083317191e-34,0.6169830208164163
145.0,0.6135936169069007,0.6133210686620432,0.0008427034117512999,0.5124406100272425,0.0002618329316935014,0.09977592229135587,1.873895903683318e-33,0.6124783652502919
145.2,0.6089850134256386,0.608712465180781,0.0011508170801447504,0.5093061322089913,0.00033466112260331995,0.09792085476904162,4.1343388958647955e-33,0.6075616481006363
145.4,0.6032719860776161,0.6029994378327586,0.0007513383275542518,0.5057268297158445,0.0004252499539718445,0.09609601983538793,9.060999343704804e-33,0.6022480995052043
145.6,0.5978209143598505,0.597548366114993,0.000993874594250932,0.5017161918520741,0.0005372309606000379,0.09430106870806794,1.9727654591202942e-32,0.596554491520742
145.8,0.592102588407598,0.5918300401627404,0.0013309272158150698,0.497288661264918,0.0006748000520739377,0.09253565162993341,4.267012408488038e-32,0.5904991129469254
146.0,0.5862905221358425,0.586017973890985,0.001916235466108751,0.49245955645911316,0.0008427638747552805,0.09079941809100782,9.169403028581831e-32,0.5841017384248762
146.2,0.5795763604489654,0.5793038122041079,0.0019202221238999728,0.48724499238689284,0.0010465806508470872,0.08909201704246798,1.9577011006322322e-31,0.5773835900802079
146.4,0.5725903328632179,0.5723177846183604,0.0019504949400185323,0.48166179962739075,0.0012923929481839047,0.08741309710276714,4.152973757668993e-31,0.5703672896783418
146.6,0.5650509901933658,0.5647784419485082,0.001701642949976656,0.47572744265962835,0.0015870495828371426,0.08576230675606612,8.753840549518769e-31,0.5630767989985316
146.8,0.5570390493714406,0.556766501126583,0.0012291551928059752,0.46945993771995453,0.001938113670710208,0.08413929454311221,1.8335119178606215e-30,0.555537345933777
147.0,0.5491093199267809,0.5488367716819234,0.0010614379727607037,0.4628777707185493,0.0023538537458725533,0.08254370924474076,3.8162197586325275e-30,0.5477753337091626
147.2,0.5404459629957316,0.540173414750874,0.00035518414852586666,0.4559998156702628,0.002843214873943916,0.08097520005814136,7.893439339407811e-30,0.5398182306023481
147.4,0.5318005937445541,0.5315280454996966,-0.00016639216789360312,0.4488452540733603,0.0034157668281728057,0.07943341676605713,1.6225609622782047e-29,0.5316944376675902
147.6,0.5228117919524758,0.5225392437076183,-0.0008938885177818268,0.44143349564564927,0.0040816266806811136,0.0779180098990697,3.3147903162065903e-29,0.5234331322254001
147.8,0.5140525971084028,0.5137800488635452,-0.0012840364328582377,0.4337841008014697,0.004851353603809785,0.07642863089112399,6.730536677417923e-29,0.5150640852964035
148.0,0.505052301158525,0.5047797529136674,-0.0018376988230172087,0.42591670522547403,0.005735814282753141,0.07496493222845738,1.3583137259208309e-28,0.5066174517366846
148.2,0.49673533380917967,0.4964627855643221,-0.0016607470074792574,0.41785094687009905,0.0067460181096227175,0.07352656759207958,2.7247412761343936e-28,0.49812353257180136
148.4,0.4883888884105848,0.48811634016572725,-0.001496169753309906,0.4096063956737873,0.007892922251283019,0.07211319199396685,5.433042847704958e-28,0.48961250991903715
148.6,0.48047569251682826,0.4802031442719707,-0.0009110116418082348,0.4012024862662954,0.009187207740362354,0.07072446190712114,1.076890194146382e-27,0.48111415591377893
148.8,0.47217039708846326,0.4718978488436057,-0.0007596693454598458,0.3926584538963559,0.010639028903066856,0.06936003538964279,2.1219139525419645e-27,0.47265751818906554
149.0,0.46512990684625555,0.464857358601398,0.0005867729404577249,0.38399327378582043,0.012257739672140009,0.0680195722029798,4.156517908782553e-27,0.46427058566094026
149.2,0.4573802126510658,0.45710766440620826,0.0011277248048023325,0.37522560408319044,0.01405160159372311,0.06670273392449236,8.094582259003817e-27,0.4559799396014059
149.4,0.4498400724068076,0.44956752416195006,0.0017571279773246906,0.3663737325588206,0.016027479571314184,0.06540918405449056,1.5672538586798407e-26,0.44781039618462537
149.6,0.4428004145551544,0.44252786631029684,0.0027432184964100714,0.35745552715386947,0.01819053254212717,0.06413858811789014,3.0170428069050875e-26,0.43978464781388676
149.8,0.4349528205425028,0.4346802722976452,0.0027573607792145682,0.3484883904657244,0.02054390729207598,0.06289061376063024,5.774811074107012e-26,0.43192291151843065
150.0,0.42756930105848834,0.4272967528136308,0.003054159321340677,0.3394892182243198,0.023088444426968693,0.06166493084100161,1.0990693896764631e-25,0.4242425934922901
150.5,0.4097158047506895,0.40944325650583197,0.003522415159748382,0.3169570084404084,0.030267729916860685,0.05869610298881451,5.358596289930885e-25,0.4059208413460836
151.0,0.39211100262242066,0.3918384543775631,0.0028994095552832833,0.2945643044240686,0.03851524220117114,0.055859498197040086,2.523525564162228e-24,0.3889390448222798
151.5,0.37526747520797377,0.3749949269631162,0.0017202339499552965,0.2725251845540733,0.04759934789488926,0.05315016056419835,1.148545131611815e-23,0.3732746930131609
152.0,0.35925866778026894,0.3589861195354114,0.00023112660823104703,0.25102702960509815,0.05716472298722846,0.05056324033485369,5.054990739893898e-23,0.3587549929271803
152.5,0.3444841086980297,0.34421156045317214,-0.000862329196821221,0.23022972500519476,0.06675016558970816,0.04809399905509044,2.1526244634911717e-22,0.34507388964999336
153.0,0.3303849390951483,0.33011239085029076,-0.001715210991954208,0.2102656433237948,0.07582414469247716,0.04573781382597305,8.874235701010024e-22,0.33182760184224497
153.5,0.3167060216455944,0.31643347340073685,-0.0021315314999714174,0.19124030502492448,0.08383451914802684,0.04349018072775695,3.543587837339763e-21,0.31856500490070827
154.0,0.3027094679635105,0.30243691971865294,-0.0024092064211158615,0.17323360659386747,0.09026580206178111,0.04134671748412021,1.371309447536463e-20,0.3048461261397688
154.5,0.28745932274771746,0.2871867745028599,-0.003113342988488532,0.1563015019104285,0.09469545014875946,0.039303165432160475,5.145576127039056e-20,0.29030011749134843
155.0,0.2720583432229444,0.27178579497808686,-0.0028880541466568266,0.14047802442257143,0.09684043384178928,0.037355390860382996,1.8730999161341522e-19,0.2746738491247437
155.5,0.2557484616188546,0.25547591337399705,-0.002387905270153534,0.1257775433892671,0.09658688948147907,0.03549938577340437,6.61811573613534e-19,0.2578638186441506
156.0,0.23877013318698656,0.23849758494212897,-0.00142946520985604,0.11219715629011325,0.09399862572322266,0.033731268138649094,2.2707450103618823e-18,0.239927050151985
156.5,0.22092996730615183,0.22065741906129424,-0.0004129601197091215,0.09971913053648689,0.0893039669775859,0.032047281666930584,7.5696050480748e-18,0.22107037918100336
157.0,0.20382719703716984,0.20355464879231225,0.0019334980039485417,0.08831332001921871,0.08286403559363553,0.030443795175509436,2.4527617166698316e-17,0.2016211507883637
