wavelength,absorbance,absorbance_bk,residual_3gauss
117.0,0.9887011346690736,0.9857826689177009,-0.01745395568220709
117.5,0.9923998016904912,0.9894813359391186,-0.004732432530585973
118.0,0.9887318921029491,0.9858134263515764,0.0018376228753297363
118.5,0.968702186665848,0.9657837209144753,-0.00681237383278821
119.0,0.9563882251337699,0.9534697593823972,-0.00668029328109776
119.5,0.9511309231721667,0.9482124574207941,0.0014976771513358633
120.0,0.9410559626820778,0.9381374969307051,0.005768665245340365
120.5,0.9279070118251952,0.9249885460738225,0.007796438943572737
121.0,0.9117477104388787,0.908829244687506,0.007563332149199686
121.5,0.8953372427037554,0.8924187769523827,0.007745564063859289
122.0,0.8768722120426128,0.8739537462912401,0.006454638830258208
122.5,0.8591720435809768,0.8562535778296041,0.006422026457943764
123.0,0.8389003876142637,0.835981921862891,0.004219581864165267
123.5,0.8177995474645469,0.8148810817131742,0.0014927212281412583
124.0,0.797433865892542,0.7945154001411693,-0.00029769669254997577
124.5,0.7771272129954588,0.7742087472440862,-0.001939604841360687
125.0,0.7549169748263198,0.7519985090749471,-0.005517614072904076
125.5,0.7359176636970812,0.7329991979457086,-0.006051334285780197
126.0,0.7168220933447212,0.7139036275933486,-0.006996057922034504
126.5,0.6992930779085217,0.696374612157149,-0.0068526852187419385
127.0,0.682353660113842,0.6794351943624694,-0.006778696309534427
127.5,0.6669431889913283,0.6640247232399556,-0.006032640766892139
128.0,0.6534957117959738,0.6505772460446011,-0.004395463418325196
128.5,0.6423201095226828,0.6394016437713101,-0.001789028788077296
129.0,0.6323856156180433,0.6294671498666706,0.0005119770733625906
129.5,0.6241493476531785,0.6212308819018059,0.002711532394419902
130.0,0.6181404444480374,0.6152219786966647,0.0050818149876914465
130.5,0.614740545013376,0.6118220792620034,0.007750509590415788
131.0,0.6126832144811603,0.6097647487297876,0.009208382205938115
131.5,0.61233689437383,0.6094184286224573,0.009601485032242896
132.0,0.6144047268530795,0.6114862611017068,0.009441024544627252
132.5,0.6198639365081811,0.6169454707568084,0.009553164479102705
133.0,0.6274317492782657,0.6245132835268931,0.008555253808228303
133.5,0.6376431319525889,0.6347246662012163,0.006943220855585852
134.0,0.6505861850135684,0.6476677192621957,0.004835402526499721
134.5,0.6661256011689046,0.663207135417532,0.0022026713108800333
135.0,0.6843326274943137,0.681414161742941,-0.0006972004023056977
135.5,0.705291368750017,0.7023729029986443,-0.003511512310926168
136.0,0.7294269714672985,0.7265085057159258,-0.005465697219603771
136.5,0.7563807414309408,0.7534622756795681,-0.006492567246417225
137.0,0.7856473881014515,0.7827289223500788,-0.006602541265893991
137.5,0.8176974202753309,0.8147789545239582,-0.0047716545434087765
138.0,0.8504890653307334,0.8475705995793608,-0.002442644997804666
138.2,0.8637984754031274,0.8608800096517547,-0.0012461113280569647
138.4,0.8769801144403787,0.874061648689006,-7.460768633593684e-05
138.6,0.8903878975547879,0.8874694318034152,0.0014670959257715444
138.8,0.9025688129185293,0.8996503471671566,0.001967298431685416
139.0,0.9153434960680751,0.9124250303167024,0.0032877595437724727
139.2,0.9270387051081753,0.9241202393568027,0.0037959925318027388
139.4,0.9379553182089011,0.9350368524575284,0.003833080483908402
139.6,0.9488153735515683,0.9458969078001956,0.004160537393392283
139.8,0.9590855922904856,0.956167126539113,0.004283655787479024
140.0,0.9686946263628528,0.9657761606114801,0.00416858383967611
140.2,0.9775263808678263,0.9746079151164536,0.003735482744680607
140.4,0.985578875566108,0.9826604098147353,0.003017229902685381
140.6,0.9921662968283255,0.9892478310769528,0.001361320163143831
140.8,0.9997399648139288,0.9968214990625561,0.0012506907469366224
141.0,1.0044972353352828,1.00157876958391,-0.0010875099562954738
141.2,1.0101513543336793,1.0072328885823065,-0.0019121911525625812
141.4,1.01434822138818,1.0114297556368073,-0.0035516690279193686
141.6,1.0187993379526283,1.0158808722012556,-0.004270820661824715
141.8,1.0223513049743567,1.0194328392229839,-0.0052016775541059435
142.0,1.0256054317558188,1.022686966004446,-0.005723896784064264
142.2,1.0291013675741982,1.0261829018228255,-0.005281198314428082
142.4,1.0308174866237447,1.027899020872372,-0.00588103805550988
142.6,1.0326755967123435,1.0297571309609708,-0.005589946592457151
142.8,1.034647442187972,1.0317289764365993,-0.004427063587145508
143.0,1.0347057216842628,1.03178725593289,-0.004413147899900105
143.2,1.034866448691265,1.0319479829398923,-0.0035282361958013375
143.4,1.033548742694874,1.0306302769435012,-0.0033518631824291933
143.6,1.0321837032491727,1.0292652374978,-0.0024541921005283296
143.8,1.0300024778528871,1.0270840121015143,-0.0016079456453232943
144.0,1.026813318756084,1.0238948530047112,-0.0010113432635827646
144.2,1.0228270855101425,1.0199086197587697,-0.00046258905678042694
144.4,1.0179290198612685,1.0150105541098957,-8.808464648102365e-05
144.6,1.0118933594645383,1.0089748937131655,-0.00012780132668299693
144.8,1.0057606909649854,1.0028422252136127,0.00044208847105142723
145.0,0.9986069995715322,0.9956885338201595,0.0006782772621205524
145.2,0.9911599830366403,0.9882415172852677,0.0012866541831250133
145.4,0.9827301172217056,0.9798116514703329,0.0015533900327500128
145.6,0.9735892921708528,0.9706708264194801,0.0017235957409146296
145.8,0.9645870891024293,0.9616686233510566,0.0026176264160574503
146.0,0.9547244527195072,0.9518059869681346,0.0032047877545922088
146.2,0.9435881657032344,0.9406696999518618,0.0030378547165811343
146.4,0.9324157660018068,0.9294973002504341,0.003318046761437765
146.6,0.9198895860107712,0.9169711202593985,0.0026891430069282407
146.8,0.9073830818060926,0.90446461605472,0.002483910230623665
147.0,0.8945203660265119,0.8916019002751392,0.0022837624156358816
147.2,0.8805373726949491,0.8776189069435765,0.001280085394994246
147.4,0.8667083897331048,0.8637899239817322,0.0007009675386329128
147.6,0.8521568850417822,0.8492384192904096,-0.00037773280321329317
147.8,0.8381468155247993,0.8352283497734266,-0.0007407895362592232
148.0,0.8230000893726083,0.8200816236212356,-0.0021158072191745925
148.2,0.8093147859432952,0.8063963201919225,-0.0019546093990915336
148.4,0.7957928664083386,0.7928744006569659,-0.001605083477753233
148.6,0.7827586541628626,0.7798401884114899,-0.0007922048087990463
148.8,0.7698951148886065,0.7669766491372338,0.00011878597255166046
149.0,0.7581680968024728,0.7552496310511001,0.002047206661658807
149.2,0.745812699723536,0.7428942339721634,0.0031839181515165293
149.4,0.7334780167627343,0.7305595510113616,0.004136702688712468
149.6,0.7220085967484131,0.7190901309970404,0.0057123703383235025
149.8,0.7095392921065339,0.7066208263551612,0.006012242810838675
150.0,0.6975736403661889,0.6946551746148162,0.0065111455582606
150.5,0.6677513286128199,0.6648328628614473,0.00637901372273042
151.0,0.6389333244370359,0.6360148586856632,0.005022098893662785
151.5,0.6109016010319117,0.607983135280539,0.0022863962542518657
152.0,0.5844859449004115,0.5815674791490388,-0.0006719208790071374
152.5,0.560082079022539,0.5571636132711664,-0.0029005977299657593
153.0,0.5371784711068849,0.5342600053555122,-0.00419130367916587
153.5,0.5145320837178733,0.5116136179665006,-0.004997875877742586
154.0,0.4909983083837952,0.48807984263242254,-0.00571410277777662
154.5,0.46627415399072625,0.4633556882393536,-0.006034985245773061
155.0,0.4407988954501333,0.4378804296987606,-0.005140262821358099
155.5,0.4141999213545827,0.41128145560321006,-0.003299065562941794
156.0,0.3857281912287573,0.3828097254773846,-0.001444249657393426
156.5,0.35663446957898365,0.353716003827611,0.0012341969753423276
157.0,0.32786423556905914,0.32494576981768647,0.005047004410909772
157.5,0.2983136159740034,0.29539515022263074,0.008144553626464601
158.0,0.2684525486846032,0.26553408293323055,0.010228568925744252
158.5,0.2383687503284745,0.2354502845771018,0.010676600487655341
159.0,0.20864324531747455,0.20572477956610186,0.009479858395222168
159.5,0.1793406250206107,0.17642215926923802,0.006272004909457118
160.0,0.15158916669522887,0.14867070094385618,0.0019232299575740186
160.5,0.12593771367555584,0.12301924792418314,-0.0031103702247607945
161.0,0.10366217404151427,0.10074370829014158,-0.007503616567603802
161.5,0.08363971484088646,0.08072124908951377,-0.012220584201677917
162.0,0.06661297568624067,0.06369450993486797,-0.016285876476165972
162.5,0.05263853919287492,0.04972007344150223,-0.019369612804676625
163.0,0.0413592181118842,0.038440752360511504,-0.02154327632884307
163.5,0.03264818398761387,0.029729718236241178,-0.022656796390933206
164.0,0.025645009159785327,0.022726543408412635,-0.023316599614407175
164.5,0.019994212483941155,0.017075746732568464,-0.02365482055737005
165.0,0.01586478947695902,0.01294632372558633,-0.023312503509019575
165.5,0.01258815777616678,0.009669692024794087,-0.022800833748786473
166.0,0.010233038655825288,0.007314572904452596,-0.0219232409947554
166.5,0.008187117137446857,0.005268651386074165,-0.02118964283247683
167.0,0.006816161527515471,0.003897695776142779,-0.020152952949876318
167.5,0.006020948897375713,0.003102483146003021,-0.018848023510308575
168.0,0.005365959669500884,0.0024474939181281926,-0.017659336184110093
168.5,0.004650692515621608,0.0017322267642489158,-0.016746694782412197
169.0,0.004304475603102887,0.0013860098517301956,-0.015648035766915862
169.5,0.003746370547583904,0.0008279047962112124,-0.014917691084067406
170.0,0.003435042081873257,0.0005165763305005652,-0.014075135876984104
170.5,0.0030943629183687164,0.0001758971669960246,-0.013378354999421763
171.0,0.0030178916827281804,9.94259313554886e-05,-0.012518604261435095
171.5,0.0031879955705619166,0.0002695298191892248,-0.011500724142970244
172.0,0.003164482867177076,0.00024601711580438416,-0.01075408639293455
172.5,0.002918465751372692,0.0,-0.010298412982124144
173.0,0.0029283205548467296,9.85480347403785e-06,-0.009647571659138808
173.5,0.003408039590613052,0.00048957383924036,-0.008581034057768664
174.0,0.0032891559436042275,0.0003706901922315357,-0.008161801126370905
174.5,0.003373492915098574,0.000455027163725882,-0.007583534425825626
175.0,0.0036057738922089144,0.0006873081408362226,-0.006897850327189878
175.5,0.0035903781507226795,0.0006719123993499877,-0.006497485906430721
176.0,0.0040469936128985804,0.0011285278615258887,-0.005660580624287295
176.5,0.004172007637530415,0.001253541886157723,-0.0051892282071052155
177.0,0.004117348049605436,0.0011988822982327441,-0.004930582189120736
177.5,0.004367272930412257,0.0014488071790395652,-0.004400012389472068
178.0,0.005111687372544104,0.0021932216211714125,-0.003407730113369239
178.5,0.0052396086147548085,0.0023211428633821167,-0.0030652570197261383
179.0,0.0054071022856378645,0.0024886365342651727,-0.0027174118720009813
179.5,0.0059080833535497404,0.0029896176021770486,-0.0020714193662667475
180.0,0.005910771986164996,0.002992306234792304,-0.001960349728666248
180.5,0.006053004845587849,0.003134539094215157,-0.0017476887827270028
181.0,0.006214396248062917,0.0032959304966902253,-0.0015550457773159101
181.5,0.0067493692620653285,0.0038309035106926367,-0.0010289821833742111
182.0,0.0071476705773157725,0.004229204825943081,-0.0006803524222172867
182.5,0.007201030641763932,0.00428256489039124,-0.000717501157056267
183.0,0.00776735860716539,0.0048488928557926985,-0.00028193475598007993
183.5,0.00796917641821437,0.005050710666841679,-0.00024977032601541764
184.0,0.008152664742648846,0.005234198991276154,-0.00027259741123241473
184.5,0.008774721484687975,0.005856255733315283,0.00010964112854922742
185.0,0.008850288739556598,0.005931822988183906,-8.400121391732157e-05
185.5,0.009209865844484997,0.006291400093112305,-1.7981168654000734e-05
186.0,0.009410253938698656,0.006491788187325964,-0.0001295853955017058
186.5,0.009849558838752595,0.006931093087379903,-1.4036349491226147e-05
187.0,0.010006339196224222,0.00708787344485153,-0.00018549455525587472
187.5,0.010186694976887895,0.007268229225515203,-0.00033015690032021754
188.0,0.010466867735268675,0.0075484019838959835,-0.00036387179675581756
188.5,0.010915307179827721,0.00799684142845503,-0.00021030713827633642
189.0,0.010913295079824022,0.00799482932845133,-0.0004805690968350002
189.5,0.011198016193192623,0.008279550441819931,-0.0004303705250056685
190.0,0.011343560925286938,0.008425095173914246,-0.0004792527776543761
190.5,0.011792448286004892,0.0088739825346322,-0.0001792617051244623
191.0,0.01166639146698262,0.008747925715609927,-0.0004043462663650254
191.5,0.01193149866461687,0.009013032913244179,-0.00018527989702626577
192.0,0.01207209527244232,0.009153629521069628,-3.5913649396941e-05
192.5,0.01182151065380891,0.008903044902436218,-0.00022241562742519871
193.0,0.011569178249432838,0.008650712498060147,-0.0003561483217639286
193.5,0.011455166626947231,0.00853670087557454,-0.0002990690789592045
194.0,0.011389412080064616,0.008470946328691924,-0.00014438812250380448
194.5,0.011536097946189825,0.008617632194817133,0.0002679542534779339
195.0,0.011690914365623173,0.00877244861425048,0.0007287169901785892
195.5,0.011279319916138683,0.008360854164765992,0.0006578067353282535
196.0,0.0111066581180083,0.008188192366635608,0.0008545895328290701
196.5,0.010764981233882044,0.007846515482509352,0.0009049095450314078
197.0,0.0099887052665201,0.007070239515147408,0.0005369308690572634
197.5,0.009007812305474044,0.006089346554101352,-2.548812883300909e-05
198.0,0.00909762539460728,0.006179159643234589,0.0004871318403982909
198.5,0.008221615957618842,0.00530315020624615,3.282611857386743e-05
199.0,0.007843001854608464,0.0049245361032357726,6.988542100873959e-05
199.5,0.007516225468756259,0.004597759717383567,0.000148407848248662
200.0,0.006894931364291816,0.0039764656129191245,-8.167644612812157e-05
200.5,0.006553193511856158,0.003634727760483466,-4.93563832064804e-05
201.0,0.006419496910708809,0.003501031159336117,0.00017144039778445048
201.5,0.006252669806206312,0.0033342040548336206,0.00033775867953877124
202.0,0.0061761164375921055,0.0032576506862194137,0.0005718110306679562
202.5,0.00584086980215776,0.002922404050785068,0.0005239805590967136
203.0,0.0059001305066631645,0.0029816647552904727,0.00084730077606299
203.5,0.005952367457387438,0.003033901706014746,0.0011404917748777622
204.0,0.005521701970851477,0.002603236219478785,0.0009282774320464372
204.5,0.005684675536765983,0.0027662097853932916,0.001288086570456089
205.0,0.005675454190435944,0.002756988439063252,0.0014551932800164135
205.5,0.005552196897272741,0.0026337311459000493,0.0014890255476749464
206.0,0.005799599120015275,0.0028811333686425836,0.0018756546372992147
206.5,0.005311629460447608,0.002393163709074916,0.001510483933637919
207.0,0.005411892637569457,0.0024934268861967653,0.001718570935407503
207.5,0.005290925496582621,0.002372459745209929,0.0016918891740642953
208.0,0.005250743426658591,0.002332277675285899,0.0017338472409882046
208.5,0.0054645986898671515,0.0025461329384944597,0.0020190260167672258
209.0,0.005663084809284904,0.0027446190579122126,0.0022792676894331466
209.5,0.005482275209243338,0.002563809457870646,0.0021518040963248064
210.0,0.005496087993847268,0.002577622242474576,0.002211615568375925
210.5,0.0055902815883642695,0.0026718158369915777,0.002345424284919492
211.0,0.005668405675549669,0.002749939924176977,0.0024576458768580008
211.5,0.005255586579813596,0.0023371208284409042,0.002074177782554304
212.0,0.005418550247608044,0.002500084496235352,0.002262426917893113
212.5,0.005149470333076854,0.0022310045817041622,0.0020151636537403456
213.0,0.005126105201655356,0.0022076394502826644,0.0020106654728654525
213.5,0.005466628687698789,0.002548162936326097,0.0023675547767557682
214.0,0.0055834425202430605,0.0026649767688703687,0.0024986184622805617
214.5,0.005585929205097739,0.0026674634537250472,0.0025135678280212644
215.0,0.0055680119571157325,0.0026495462057430407,0.0025066052343188858
215.5,0.005571252955251923,0.0026527872038792314,0.0025195286705483023
216.0,0.005757685649140745,0.002839219897768053,0.002714569881871134
216.5,0.00564640401872831,0.0027279382673556186,0.002610988915336715
217.0,0.0056395532823119866,0.0027210875309392948,0.0026110695665697093
217.5,0.005620664837319437,0.002702199085946745,0.002598458518295094
218.0,0.005801090853046217,0.0028826251016735253,0.002784603612195465
218.5,0.005756970357607904,0.0028385046062352126,0.0027457231291885854
219.0,0.006094227393017475,0.0031757616416447833,0.003087806691476807
219.5,0.005858076442739357,0.002939610691366665,0.0028561230336198334
220.0,0.006320240396346921,0.003401774644974229,0.003322439951184326
