wavelength,absorbance,absorbance_bk,residual_3gauss,Gauss_1,Gauss_2,Gauss_3,Gauss_4,Gauss_fit
117.0,0.7899537559801325,0.7877385819283694,-0.0076172329798287475,1.2058996465047706e-06,2.5097608530050986e-58,0.7953546090085517,7.822638161782567e-108,0.7953558149081982
117.5,0.7776838457455315,0.7754686716937684,-0.012805182825690875,2.1932271853211283e-06,2.218261719797781e-56,0.788271661292274,1.518233278996971e-105,0.7882738545194593
118.0,0.7774636924498644,0.7752485183981013,-0.004977875334591486,3.914944016892973e-06,1.747148916003364e-54,0.7802224787886759,2.6609628955802466e-103,0.7802263937326928
118.5,0.7692369565807442,0.7670217825289811,-0.004249532909734621,6.861429850617389e-06,1.2292510681060926e-52,0.7712644540088651,4.220156412032922e-101,0.7712713154387157
119.0,0.765629394917824,0.7634142208660609,0.001946101372887421,1.1812022102582895e-05,7.744204150398416e-51,0.761456307471071,6.068231142972431e-99,0.7614681194931735
119.5,0.7543424705533213,0.7521272965015582,0.0012496643106021388,1.9981299080383544e-05,4.378711565578464e-49,0.7508576508918756,7.926373314099654e-97,0.750877632190956
120.0,0.7445367511249164,0.7423215770731533,0.0027597761537817567,3.3226019795012414e-05,2.227068211319808e-47,0.7395285748995765,9.422841000070718e-95,0.7395618009193715
120.5,0.7349263183981622,0.7327111443463992,0.005127550013439897,5.433121646331357e-05,1.0211739380712391e-45,0.7275292631164959,1.0213669805820454e-92,0.7275835943329593
121.0,0.7258477796818876,0.7236326056301245,0.008625575025417276,8.739661879106125e-05,4.230425411581156e-44,0.7149196339859162,1.011239719046579e-90,0.7150070306047073
121.5,0.7116483851812812,0.7094332111295181,0.007535853465615805,0.0001383463835109363,1.5867330512069757e-42,0.7017590112803913,9.161383379507375e-89,0.7018973576639023
122.0,0.697328160688681,0.6951129866369179,0.006791577457975095,0.0002155853548225207,5.399523777610838e-41,0.6881058238241203,7.607603880174039e-87,0.6883214091789428
122.5,0.6822058249357889,0.6799906508840258,0.005642493250599401,0.0003308230386227688,1.6703769696734884e-39,0.6740173345948036,5.800204522274777e-85,0.6743481576334264
123.0,0.6684540845707008,0.6662389105189377,0.006189430129806994,0.0005000813483946221,4.706917845297319e-38,0.6595493990407361,4.066865825342886e-83,0.6600494803891307
123.5,0.6519955975777522,0.6497804235259891,0.004279278121445573,0.0007448932473271228,1.2104809525645618e-36,0.6447562521572164,2.626602198630685e-81,0.6455011454045435
124.0,0.6334141395166306,0.6311989654648675,0.0004149557243109392,0.0010936861283779111,2.84639808622235e-35,0.6296903236121787,1.5650497683934963e-79,0.6307840097405566
124.5,0.6172385125008665,0.6150233384491034,-0.0009620674698983533,0.0015833259257606819,6.131239172928143e-34,0.614402079993241,8.616440928141784e-78,0.6159854059190017
125.0,0.5999900114272433,0.5977748373754802,-0.0034258314797049882,0.002260775789219496,1.2119825924474548e-32,0.5989398930659657,4.3898082230737565e-76,0.6012006688551852
125.5,0.5839392075433795,0.5817240334916164,-0.004810696808685844,0.003184797516364107,2.2024345023240986e-31,0.5833499327839381,2.072615824189039e-74,0.5865347303003022
126.0,0.5688803187526789,0.5666651447009158,-0.005438535305281045,0.004427596332675292,3.6856490794449024e-30,0.5676760836735215,9.081793402698764e-73,0.5721036800061968
126.5,0.5548875287223247,0.5526723546705616,-0.005363810666247026,0.0060762822093546,5.689295637793985e-29,0.551959883127454,3.698404389812851e-71,0.5580361653368087
127.0,0.5403523312108346,0.5381371571590715,-0.0063373194022875445,0.008233996481958036,8.11427038536483e-28,0.5362404800794011,1.401665577221069e-69,0.544474476561359
127.5,0.5286578270147623,0.5264426529629992,-0.005132493785213188,0.011020534254389671,1.0709864261058232e-26,0.5205546124938227,4.950466069450739e-68,0.5315751467482124
128.0,0.5170276871247914,0.5148125130730283,-0.0046963732722589135,0.014572284255914251,1.3102180845746808e-25,0.504936602089373,1.6315160800648386e-66,0.5195088863452872
128.5,0.5076659228347397,0.5054507487829766,-0.003008927493548419,0.019041311559249895,1.4879724721985604e-24,0.4894183647172751,5.023887858338812e-65,0.508459676276525
129.0,0.4999547471201465,0.49773957306838335,-0.0008832891146549615,0.02459342734704403,1.5710490945552155e-23,0.4740294348359943,1.447236932940444e-63,0.4986228621830383
129.5,0.493268955024798,0.49105378097303487,0.0008516532139581368,0.0314051252010301,1.5444210839490797e-22,0.4587970025580466,3.90505057072385e-62,0.49020212775907673
130.0,0.4879440626202245,0.48572888856846136,0.0023236114839312316,0.039659315293105867,1.4156190049073298e-21,0.4437459617914243,9.881568545866997e-61,0.4834052770845301
130.5,0.4845929076443853,0.48237773359262215,0.003938910647551197,0.049539854890113415,1.2115510657874257e-20,0.42889896805495753,2.347746139907008e-59,0.47843882294507095
131.0,0.48288976640380776,0.4806745923520446,0.005173135178143495,0.061224952561914334,9.695014064954266e-20,0.4142765046119868,5.243308894394555e-58,0.47550145717390113
131.5,0.4828079734254152,0.48059279937365207,0.0058162341147176,0.07487960962083033,7.263572860519203e-19,0.3998969556381041,1.101999324251799e-56,0.47477656525893447
132.0,0.48421418030229046,0.48199900625052733,0.005574971521943695,0.09064734951364509,5.101741027137758e-18,0.3857766852149385,2.1820315912900325e-55,0.47642403472858363
132.5,0.4888567395279748,0.4866415654762117,0.006069877288009395,0.10864156716683723,3.363656064431337e-17,0.371930121021365,4.074898380992228e-54,0.4805716881882023
133.0,0.49497350452863254,0.4927583304768694,0.005451590382498928,0.1289368984194618,2.0843785720560562e-16,0.3583698416749085,7.184739281500424e-53,0.48730674009437047
133.5,0.5034962264284883,0.5012810523767253,0.004613327767339137,0.15156105785111537,1.2154819574659457e-15,0.3451066667582695,1.1972824398225165e-51,0.49666772460938613
134.0,0.5137635163916533,0.5115483423398902,0.0029109778753981796,0.17648761581671008,6.678069663107441e-15,0.3321497486477753,1.8876311984829878e-50,0.508637364464492
134.5,0.5268356716648228,0.5246204976130597,0.0014836539155131945,0.20363017835616432,3.4609580209603205e-14,0.31950666534134764,2.8184288556540024e-49,0.5231368436975465
135.0,0.5411321937329401,0.538917019681177,-0.0011048889684139862,0.23283839508698956,1.693893981993875e-13,0.30718351356243206,3.989256642605013e-48,0.540021908649591
135.5,0.5583904122811116,0.5561752382293486,-0.0029059141987169967,0.2638961509345202,7.838113340583177e-13,0.29518500149276156,5.357827697648458e-47,0.5590811524280656
136.0,0.5780053590812435,0.5757901850294804,-0.004246556404834623,0.29652220087069536,3.43283403198517e-12,0.2835145405601868,6.834485009378456e-46,0.580036741434315
136.5,0.599708359613304,0.597493185561541,-0.0050545385491519434,0.33037338831864693,1.424558960762701e-11,0.2721743357778004,8.287876607532742e-45,0.6025477241106929
137.0,0.6238188667468381,0.621603692695075,-0.004612236606140296,0.3650504550482713,5.6073144760507146e-11,0.2611654741968708,9.562979949067106e-44,0.6262159293012153
137.5,0.6493603275668726,0.6471451535151095,-0.00344916983860033,0.4001063120456889,2.0956903431195817e-10,0.25048801109845187,1.0508479047296077e-42,0.6505943233537098
138.0,0.6761023704476302,0.6738871963958671,-0.0013103643113141494,0.43505650635588944,7.444549948539672e-10,0.24014105360683688,1.1006762006927067e-41,0.6751975607071813
138.2,0.6864604136789492,0.6842452396271861,-0.0007426064813318423,0.44889339965865915,1.2188859240543145e-09,0.2360944452309729,2.779449665419714e-41,0.6849878461085179
138.4,0.6974642820536341,0.695249108001871,0.0005501361841734331,0.46259867393867315,1.9799510294045344e-09,0.2321002958990734,6.966395594820206e-41,0.6946989718176976
138.6,0.7079161705372293,0.7057009964854662,0.0014036936851994364,0.4761388624799047,3.191094297033497e-09,0.22815843712926787,1.7331279452648081e-40,0.7042973028002668
138.8,0.7181009589255339,0.7158857848737709,0.0021366012640583465,0.48948049673778893,5.103233393686918e-09,0.22426868176869025,4.280053489601873e-40,0.7137491836097125
139.0,0.7282669674606601,0.726051793408897,0.0030307044437362096,0.5025902561272293,8.098384773953604e-09,0.2204308247395468,1.0492683443701414e-39,0.7230210889651608
139.2,0.7373195572179613,0.7351043831661982,0.003024608660327943,0.5154351179811475,1.2753368952885781e-08,0.21664464377135384,2.553673023710783e-39,0.7320797745058703
139.4,0.7464019133032902,0.7441867392515271,0.0032943125289486286,0.5279825066713464,1.9932011021958303e-08,0.21290990011922106,6.170320347839003e-39,0.7408924267225785
139.6,0.75546823802583,0.7532530639740669,0.003826252895345772,0.5402004408932796,3.091739622837221e-08,0.20922633926804532,1.4802532524813106e-38,0.7494268110787211
139.8,0.7637803920461074,0.7615652179943443,0.003913800637043274,0.5520576781348984,4.759989648717798e-08,0.20559369162250618,3.525918186005145e-38,0.757651417357301
140.0,0.7710830460908669,0.7688678720391038,0.0033322707373619753,0.5635238553768268,7.274211090621644e-08,0.20201167318280405,8.33946449773938e-38,0.7655356013017418
140.2,0.778210143060942,0.775994969009179,0.002945247347605373,0.5745696251066527,1.1034886390732147e-07,0.19847998620605703,1.958643888709761e-37,0.7730497216615736
140.4,0.7853192831812081,0.7831041091294451,0.002938837323722021,0.5851667857730692,1.6617932045955936e-07,0.19499831985333343,4.568205895241798e-37,0.780165271805723
140.6,0.7908290523988111,0.788613878347048,0.0017588732193303258,0.5952884058559378,2.484494847635523e-07,0.19156635082229514,1.0581081127777847e-36,0.7868550051277177
140.8,0.7961731823491158,0.7939580082973527,0.0008649547595068752,0.6049089407851673,3.6878724267271903e-07,0.18818374396543594,2.434051438066244e-36,0.7930930535378459
141.0,0.8007362978132708,0.7985211237615077,-0.0003339146554052208,0.614004342003879,5.43519086201309e-07,0.18485015289394782,5.561164892278895e-36,0.798855038416913
141.2,0.8047667382712858,0.8025515642195227,-0.0015666092750487026,0.6225521575392611,7.953880893740428e-07,0.1815652205672209,1.2619987364791624e-35,0.8041181734945714
141.4,0.8086521216033763,0.8064369475516132,-0.002424411659880721,0.6305316235165617,1.1558268893801588e-06,0.17832857986804282,2.844656585949276e-35,0.8088613592114939
141.6,0.8121758143297304,0.8099606402779673,-0.003104627950641148,0.6379237461275209,1.6679375477558845e-06,0.17513985416353983,6.369407480830736e-35,0.8130652682286085
141.8,0.814889800868185,0.8126746268164219,-0.004037795040736314,0.6447113736429985,2.3903622237878972e-06,0.17199865785193597,1.416729093559671e-34,0.8167124218571582
142.0,0.8178080790418895,0.8155929049901264,-0.0041943523094227775,0.6508792581400004,3.4022643313209466e-06,0.16890459689521745,3.1304974018239245e-34,0.8197872572995492
142.2,0.8201663580563479,0.8179511840045848,-0.004325001706784626,0.6564141066949007,4.809678675740671e-06,0.16585726933779288,6.8722452028001015e-34,0.8222761857113694
142.4,0.8219567717513084,0.8197415976995454,-0.004426043518175882,0.6613046218765031,6.753529955162879e-06,0.162856265811263,1.498865145867332e-33,0.8241676412177212
142.6,0.8232984773846773,0.8210833033329142,-0.0043688178069268835,0.6655415314540147,9.419660412392633e-06,0.15990117002541407,3.2480655478105466e-33,0.8254521211398411
142.8,0.82470675208524,0.8224915780334769,-0.0036306397744477747,0.6691176073151767,1.305124718845259e-05,0.15699155924555963,6.993665564822775e-33,0.8261222178079247
143.0,0.8251187334280254,0.8229035593762624,-0.0032690830733326237,0.6720276736679938,1.7964025222917433e-05,0.15412700475637828,1.49631205995974e-32,0.826172642449595
143.2,0.8249715463116114,0.8227563722598483,-0.002843869486493178,0.6742686046751468,2.4564758816726316e-05,0.1513070723123779,3.181236590638921e-32,0.8256002417463415
143.4,0.8240675100791234,0.8218523360273603,-0.0025516717101999875,0.6758393117424681,3.3373419935848465e-05,0.14853132257515633,6.721176901472937e-32,0.8244040077375603
143.6,0.8228650474903216,0.8206498734385586,-0.0019352083794980102,0.6767407207514265,4.504952902123911e-05,0.1457993115376087,1.4112020092276522e-31,0.8225850818180566
143.8,0.8212766691107822,0.8190614950590192,-0.0010852585549000482,0.6769757395897333,6.04230889389204e-05,0.14311059093524695,2.944735825964009e-31,0.8201467536139192
144.0,0.8185725487641179,0.8163573747123548,-0.0007370808148887686,0.6765492163936017,8.053048882164332e-05,0.14046470864482033,6.107105649570316e-31,0.8170944555272436
144.2,0.8154276558514085,0.8132124817996454,-0.0002232719060730748,0.6754678889694502,0.00010665566587040261,0.1378612090703979,1.2588528450584642e-30,0.8134357537057185
144.4,0.8115509694091381,0.809335795357375,0.00015545924475679485,0.6737403259116145,0.00014037668389112935,0.13529963351711263,2.5791897546983744e-30,0.8091803361126182
144.6,0.8068010813456574,0.8045859072938943,0.000245909053132376,0.671376859975692,0.00018361771232076128,0.1327795205527492,5.252652083013151e-30,0.804339998240762
144.8,0.8014693800158198,0.7992542059640567,0.0003255791375404993,0.6683895143043049,0.0002387061648430014,0.13030040635736828,1.0633569199941996e-29,0.7989286268265162
145.0,0.7960428978827062,0.7938277238309431,0.0008655421562352439,0.66479192213323,0.0003084344803026031,0.12786182506117522,2.13994448738601e-29,0.7929621816747079
145.2,0.7899405612347306,0.7877253871829675,0.0012667117804348038,0.6605992406309062,0.00039612570080887094,0.12546330907081765,4.2812123417046245e-29,0.7864586754025327
145.4,0.7828931040536127,0.7806779300018496,0.001239779448092282,0.6558280595434209,0.0005057016260054829,0.12310438938433084,8.515095132529409e-29,0.7794381505537573
145.6,0.7753786760618013,0.7731635020100383,0.0012408488795858652,0.6504963053301348,0.0006417519053865174,0.12078459589493101,1.6837912062741475e-28,0.7719226531304524
145.8,0.7680009529571725,0.7657857789054094,0.0018495777560141313,0.6446231414823445,0.0008096019831897326,0.11850345768386114,3.3103990963825637e-28,0.7639362011493953
146.0,0.7600990479923946,0.7578838739406315,0.0023791275710876025,0.6382288657190024,0.0010153773480325035,0.11626050330250907,6.47117451276515e-28,0.7555047463695439
146.2,0.7511540870052871,0.748938912953524,0.002282786078208865,0.631334804749642,0.0012660610816704683,0.11405526104400264,1.2578059083418867e-27,0.7466561268753151
146.4,0.7422988117688248,0.7400836377170618,0.00266362995512881,0.6239632072856561,0.0015695412717845235,0.1118872592044923,2.431022066962072e-27,0.737420007761933
146.6,0.7323793666204785,0.7301641925687155,0.0023363857872108484,0.616137135967291,0.0019346444798645343,0.10975602633434903,4.672246898673746e-27,0.7278278067815046
146.8,0.7217187032898058,0.7195035292380427,0.001590927736234149,0.6078803588552363,0.0023711511671027424,0.10766109147946959,8.929785197143352e-27,0.7179126015018086
147.0,0.7112222317068708,0.7090070576551077,0.0012980433186234874,0.5992172411133385,0.0028897888102189634,0.10560198441292679,1.6972709900232675e-26,0.7077090143364843
147.2,0.7000028705206246,0.6977876964688615,0.0005346247124262682,0.5901726374825536,0.0035021984167219627,0.10357823585715971,3.208283884047062e-26,0.6972530717564352
147.4,0.6890450705920405,0.6868298965402774,0.00024786242194752006,0.5807717861167466,0.004220870304652429,0.10158937769693073,6.031456058199209e-26,0.6865820341183299
147.6,0.6770369464192499,0.6748217723674869,-0.0009124205048303136,0.571040204318326,0.005059045370732063,0.09963494318325902,1.127757049584411e-25,0.6757341928723172
147.8,0.66576769231965,0.663552518267887,-0.0011961141894328842,0.561003586676594,0.00603057865218874,0.09771446712853715,2.0973409699525377e-25,0.6647486324573199
148.0,0.6535608525133102,0.6513456784615471,-0.0023192765082014066,0.5506877060745963,0.007149762802097643,0.09582748609305455,3.8797042396122575e-25,0.6536649549697485
148.2,0.6428883571948049,0.6406731831430418,-0.0018497835576688493,0.5401183179912511,0.008431110146334336,0.09397353856312521,7.138716696792785e-25,0.6425229667007106
148.4,0.6320646056842455,0.6298494316324824,-0.0015128952346944446,0.5293210684855283,0.009889093260608646,0.09215216512104002,1.3066201863708226e-24,0.6313623268671769
148.6,0.6214113545640687,0.6191961805123056,-0.0010259797770322265,0.5183214062083292,0.01153784547396278,0.09036290860704586,2.3790407934245414e-24,0.6202221602893379
148.8,0.6109030589033252,0.6086878848515621,-0.0004527525005552091,0.5071444987462177,0.013390824332346594,0.088605314273553,4.309166014861126e-24,0.6091406373521173
149.0,0.6015804050981883,0.5993652310464253,0.00121070476411278,0.4958151535596187,0.015460442790906394,0.08687892993178738,7.764951723721534e-24,0.5981545262823125
149.2,0.5913292436325185,0.5891140695807554,0.001815345070360519,0.48435774373653817,0.01775767468278139,0.08518330609107524,1.392046555201229e-23,0.5872987245103949
149.4,0.5816346352236315,0.5794194611718684,0.0028136835772807345,0.4727961387421487,0.020291642761468207,0.08351799609097071,2.4828665636196763e-23,0.5766057775945876
149.6,0.5720988222329318,0.5698836481811688,0.0037782523983371785,0.46115364030450223,0.023069199251909162,0.08188255622642024,4.406082857644849e-23,0.5661053957828316
149.8,0.5621787686631418,0.5599635946113787,0.004139614920340873,0.4494529235377439,0.026094510287137915,0.08027654586615594,7.779765859502996e-23,0.5558239796910378
150.0,0.5524272336198468,0.5502120595680837,0.0044278918691184055,0.43771598336676876,0.029368656767680388,0.07869952756451612,1.366815183660372e-22,0.5457841676989653
150.5,0.5288947143187211,0.5266795402669581,0.0048280203793089616,0.4083528092513267,0.03861772934280091,0.07488098129352151,5.472273756253446e-22,0.5218515198876491
151.0,0.5058050783778438,0.5035899043260808,0.0038997776082805857,0.379204507092026,0.04925137752505298,0.07123424210072117,2.1250929656916677e-21,0.49969012671780016
151.5,0.4834652325435672,0.4812500584918041,0.001990604343810931,0.35054828466571647,0.06095840766552421,0.06775276181675242,8.00871205375981e-21,0.47925945414799315
152.0,0.46244199042764544,0.4602268163758823,-9.190063621727917e-05,0.3226260227258205,0.07326255375737743,0.06443014052890164,2.930491425753063e-20,0.4603187170120996
152.5,0.44301587029515765,0.4408006962433945,-0.001650500676898481,0.2956433394237594,0.08554772483433322,0.061260132662200394,1.0416591310330039e-19,0.442451196920293
153.0,0.42487069503109975,0.4226555209793366,-0.002458325215974333,0.2697696752588395,0.09710751902944849,0.05823665190702298,3.5985587718544287e-19,0.42511384619531095
153.5,0.40648224285728046,0.4042670688055173,-0.0034397454618604884,0.24513926123745533,0.10721377794094779,0.05535377508897471,1.2088040852590276e-18,0.4077068142673778
154.0,0.38788518780778064,0.3856700137560175,-0.0039832536551811515,0.22185282187687475,0.11519470046227677,0.05260574507204713,3.9501203919940115e-18,0.38965326741119866
154.5,0.36838843279066175,0.3661732587388986,-0.004304083839503037,0.19997986116104488,0.12051050863616927,0.049986972781187515,1.2562928240095173e-17,0.37047734257840165
155.0,0.3483210700134209,0.34610589596165775,-0.00376208663032368,0.17956138248400158,0.12281456168233908,0.0474920384256407,3.890388436804039e-17,0.34986798259198143
155.5,0.32710818554635607,0.32489301149459293,-0.0028258177338550405,0.16061290180650603,0.12199023542226674,0.045115691999675106,1.1735684914746816e-16,0.32771882922844797
156.0,0.30472453886301176,0.3025093648112486,-0.0016293793551516167,0.14312762546524527,0.11815826556850237,0.04285285313265227,3.4500522233622605e-16,0.30413874416640024
156.5,0.28184477450028356,0.2796296004485204,0.00019675220408316152,0.1270796791016981,0.11165455878689085,0.040698610355847306,9.888481443021358e-16,0.27943284824443726
157.0,0.2594002064036027,0.25718503235183954,0.003126030039575567,0.11242729089645427,0.10298349156679848,0.03864821984900843,2.7644061673797872e-15,0.25405900231226397
157.5,0.23626729115632183,0.23405211710455873,0.005483777683105345,0.09911584970891371,0.09275538598717264,0.03669710372535947,7.540857913656472e-15,0.22856833942145338
