wavelength,absorbance,absorbance_bk,residual_3gauss
117.0,0.9887011346690736,0.9857826689177009,-0.017453955658364606
117.5,0.9923998016904912,0.9894813359391186,-0.004732432510676898
118.0,0.9887318921029491,0.9858134263515764,0.0018376228913878911
118.5,0.968702186665848,0.9657837209144753,-0.006812373820484052
119.0,0.9563882251337699,0.9534697593823972,-0.006680293272435467
119.5,0.9511309231721667,0.9482124574207941,0.0014976771564823022
120.0,0.9410559626820778,0.9381374969307051,0.005768665247112059
120.5,0.9279070118251952,0.9249885460738225,0.007796438942125894
121.0,0.9117477104388787,0.908829244687506,0.007563332144707724
121.5,0.8953372427037554,0.8924187769523827,0.007745564056514054
122.0,0.8768722120426128,0.8739537462912401,0.006454638820272973
122.5,0.8591720435809768,0.8562535778296041,0.006422026445556006
123.0,0.8389003876142637,0.835981921862891,0.004219581849640774
123.5,0.8177995474645469,0.8148810817131742,0.001492721211776904
124.0,0.797433865892542,0.7945154001411693,-0.00029769671042145784
124.5,0.7771272129954588,0.7742087472440862,-0.0019396048603684823
125.0,0.7549169748263198,0.7519985090749471,-0.0055176140926362915
125.5,0.7359176636970812,0.7329991979457086,-0.006051334305783751
126.0,0.7168220933447212,0.7139036275933486,-0.006996057941816014
126.5,0.6992930779085217,0.696374612157149,-0.0068526852377732705
127.0,0.682353660113842,0.6794351943624694,-0.006778696327259248
127.5,0.6669431889913283,0.6640247232399556,-0.006032640782738241
128.0,0.6534957117959738,0.6505772460446011,-0.004395463431719815
128.5,0.6423201095226828,0.6394016437713101,-0.0017890287984660969
129.0,0.6323856156180433,0.6294671498666706,0.0005119770664924195
129.5,0.6241493476531785,0.6212308819018059,0.0027115323915147815
130.0,0.6181404444480374,0.6152219786966647,0.005081814989104427
130.5,0.614740545013376,0.6118220792620034,0.007750509596380573
131.0,0.6126832144811603,0.6097647487297876,0.009208382216544297
131.5,0.61233689437383,0.6094184286224573,0.00960148504741598
132.0,0.6144047268530795,0.6114862611017068,0.009441024564113443
132.5,0.6198639365081811,0.6169454707568084,0.009553164502462685
133.0,0.6274317492782657,0.6245132835268931,0.008555253834838905
133.5,0.6376431319525889,0.6347246662012163,0.006943220884652823
134.0,0.6505861850135684,0.6476677192621957,0.0048354025570805925
134.5,0.6661256011689046,0.663207135417532,0.0022026713419178723
135.0,0.6843326274943137,0.681414161742941,-0.0006972003719407649
135.5,0.705291368750017,0.7023729029986443,-0.003511512282385887
136.0,0.7294269714672985,0.7265085057159258,-0.005465697194006691
136.5,0.7563807414309408,0.7534622756795681,-0.00649256722479119
137.0,0.7856473881014515,0.7827289223500788,-0.006602541249119187
137.5,0.8176974202753309,0.8147789545239582,-0.004771654532165326
138.0,0.8504890653307334,0.8475705995793608,-0.002442644992526777
138.2,0.8637984754031274,0.8608800096517547,-0.0012461113252245637
138.4,0.8769801144403787,0.874061648689006,-7.460768595457523e-05
138.6,0.8903878975547879,0.8874694318034152,0.0014670959237158554
138.8,0.9025688129185293,0.8996503471671566,0.001967298427226871
139.0,0.9153434960680751,0.9124250303167024,0.0032877595369658064
139.2,0.9270387051081753,0.9241202393568027,0.0037959925227224467
139.4,0.9379553182089011,0.9350368524575284,0.003833080472648853
139.6,0.9488153735515683,0.9458969078001956,0.004160537380067941
139.8,0.9590855922904856,0.956167126539113,0.004283655772223671
140.0,0.9686946263628528,0.9657761606114801,0.004168583822641958
140.2,0.9775263808678263,0.9746079151164536,0.003735482726037631
140.4,0.985578875566108,0.9826604098147353,0.0030172298826212085
140.6,0.9921662968283255,0.9892478310769528,0.0013613201418616327
140.8,0.9997399648139288,0.9968214990625561,0.0012506907246542243
141.0,1.0044972353352828,1.00157876958391,-0.0010875099793461462
141.2,1.0101513543336793,1.0072328885823065,-0.0019121911761383892
141.4,1.01434822138818,1.0114297556368073,-0.003551669051765849
141.6,1.0187993379526283,1.0158808722012556,-0.004270820685679633
141.8,1.0223513049743567,1.0194328392229839,-0.005201677577699737
142.0,1.0256054317558188,1.022686966004446,-0.005723896807122708
142.2,1.0291013675741982,1.0261829018228255,-0.005281198336673842
142.4,1.0308174866237447,1.027899020872372,-0.0058810380766658454
142.6,1.0326755967123435,1.0297571309609708,-0.005589946612247765
142.8,1.034647442187972,1.0317289764365993,-0.0044270636052994305
143.0,1.0347057216842628,1.03178725593289,-0.004413147916153992
143.2,1.034866448691265,1.0319479829398923,-0.003528236209901392
143.4,1.033548742694874,1.0306302769435012,-0.003351863194135607
143.6,1.0321837032491727,1.0292652374978,-0.0024541921096170594
143.8,1.0300024778528871,1.0270840121015143,-0.0016079456515907253
144.0,1.026813318756084,1.0238948530047112,-0.0010113432668483746
144.2,1.0228270855101425,1.0199086197587697,-0.00046258905689189334
144.4,1.0179290198612685,1.0150105541098957,-8.808464331666599e-05
144.6,1.0118933594645383,1.0089748937131655,-0.00012780132015688395
144.8,1.0057606909649854,1.0028422252136127,0.0004420884809859249
145.0,0.9986069995715322,0.9956885338201595,0.0006782772754666544
145.2,0.9911599830366403,0.9882415172852677,0.001286654199839088
145.4,0.9827301172217056,0.9798116514703329,0.0015533900527371358
145.6,0.9735892921708528,0.9706708264194801,0.0017235957640259203
145.8,0.9645870891024293,0.9616686233510566,0.002617626442087184
146.0,0.9547244527195072,0.9518059869681346,0.003204787783276264
146.2,0.9435881657032344,0.9406696999518618,0.0030378547475956585
146.4,0.9324157660018068,0.9294973002504341,0.0033180467943990655
146.6,0.9198895860107712,0.9169711202593985,0.0026891430413941153
146.8,0.9073830818060926,0.90446461605472,0.002483910266096845
147.0,0.8945203660265119,0.8916019002751392,0.0022837624515679167
147.2,0.8805373726949491,0.8776189069435765,0.0012800854307909448
147.4,0.8667083897331048,0.8637899239817322,0.0007009675736637799
147.6,0.8521568850417822,0.8492384192904096,-0.0003777327696062871
147.8,0.8381468155247993,0.8352283497734266,-0.0007407895047504276
148.0,0.8230000893726083,0.8200816236212356,-0.0021158071904405773
148.2,0.8093147859432952,0.8063963201919225,-0.0019546093737972114
148.4,0.7957928664083386,0.7928744006569659,-0.0016050834565359828
148.6,0.7827586541628626,0.7798401884114899,-0.0007922047922523934
148.8,0.7698951148886065,0.7669766491372338,0.00011878598389558626
149.0,0.7581680968024728,0.7552496310511001,0.002047206667344925
149.2,0.745812699723536,0.7428942339721634,0.0031839181511837955
149.4,0.7334780167627343,0.7305595510113616,0.004136702682107085
149.6,0.7220085967484131,0.7190901309970404,0.00571237032531291
149.8,0.7095392921065339,0.7066208263551612,0.006012242791420541
150.0,0.6975736403661889,0.6946551746148162,0.006511145532570595
150.5,0.6677513286128199,0.6648328628614473,0.0063790136828763
151.0,0.6389333244370359,0.6360148586856632,0.005022098843474487
151.5,0.6109016010319117,0.607983135280539,0.0022863961992343196
152.0,0.5844859449004115,0.5815674791490388,-0.0006719209324679287
152.5,0.560082079022539,0.5571636132711664,-0.00290059777563223
153.0,0.5371784711068849,0.5342600053555122,-0.004191303712015815
153.5,0.5145320837178733,0.5116136179665006,-0.004997875894849346
154.0,0.4909983083837952,0.48807984263242254,-0.005714102778809349
154.5,0.46627415399072625,0.4633556882393536,-0.006034985233009271
155.0,0.4407988954501333,0.4378804296987606,-0.005140262799211315
155.5,0.4141999213545827,0.41128145560321006,-0.003299065537114787
156.0,0.3857281912287573,0.3828097254773846,-0.001444249633847705
156.5,0.35663446957898365,0.353716003827611,0.00123419699138555
157.0,0.32786423556905914,0.32494576981768647,0.005047004415744849
157.5,0.2983136159740034,0.29539515022263074,0.008144553618330608
158.0,0.2684525486846032,0.26553408293323055,0.010228568904871838
158.5,0.2383687503284745,0.2354502845771018,0.010676600455977986
159.0,0.20864324531747455,0.20572477956610186,0.009479858355857296
159.5,0.1793406250206107,0.17642215926923802,0.0062720048660901695
160.0,0.15158916669522887,0.14867070094385618,0.0019232299138679243
160.5,0.12593771367555584,0.12301924792418314,-0.0031103702656349874
161.0,0.10366217404151427,0.10074370829014158,-0.007503616603266844
161.5,0.08363971484088646,0.08072124908951377,-0.012220584230663564
162.0,0.06661297568624067,0.06369450993486797,-0.01628587649788958
162.5,0.05263853919287492,0.04972007344150223,-0.019369612819295848
163.0,0.0413592181118842,0.038440752360511504,-0.021543276337060234
163.5,0.03264818398761387,0.029729718236241178,-0.02265679639378482
164.0,0.025645009159785327,0.022726543408412635,-0.023316599613073658
164.5,0.019994212483941155,0.017075746732568464,-0.023654820553025032
165.0,0.01586478947695902,0.01294632372558633,-0.023312503502726338
165.5,0.01258815777616678,0.009669692024794087,-0.02280083374143897
166.0,0.010233038655825288,0.007314572904452596,-0.021923240987056142
166.5,0.008187117137446857,0.005268651386074165,-0.021189642824941495
167.0,0.006816161527515471,0.003897695776142779,-0.02015295294285493
167.5,0.006020948897375713,0.003102483146003021,-0.018848023504014752
168.0,0.005365959669500884,0.0024474939181281926,-0.017659336178652316
168.5,0.004650692515621608,0.0017322267642489158,-0.016746694777822833
169.0,0.004304475603102887,0.0013860098517301956,-0.015648035763176256
169.5,0.003746370547583904,0.0008279047962112124,-0.014917691081127862
170.0,0.003435042081873257,0.0005165763305005652,-0.014075135874779252
170.5,0.0030943629183687164,0.0001758971669960246,-0.013378354997881925
171.0,0.0030178916827281804,9.94259313554886e-05,-0.012518604260494347
171.5,0.0031879955705619166,0.0002695298191892248,-0.011500724142572201
172.0,0.003164482867177076,0.00024601711580438416,-0.010754086393036448
172.5,0.002918465751372692,0.0,-0.010298412982699833
173.0,0.0029283205548467296,9.85480347403785e-06,-0.009647571660181035
173.5,0.003408039590613052,0.00048957383924036,-0.008581034059290863
174.0,0.0032891559436042275,0.0003706901922315357,-0.008161801128408508
174.5,0.003373492915098574,0.000455027163725882,-0.007583534428436966
175.0,0.0036057738922089144,0.0006873081408362226,-0.006897850330456383
175.5,0.0035903781507226795,0.0006719123993499877,-0.00649748591045631
176.0,0.0040469936128985804,0.0011285278615258887,-0.005660580629196641
176.5,0.004172007637530415,0.001253541886157723,-0.005189228213040683
177.0,0.004117348049605436,0.0011988822982327441,-0.004930582196237653
177.5,0.004367272930412257,0.0014488071790395652,-0.004400012397932323
178.0,0.005111687372544104,0.0021932216211714125,-0.0034077301233329683
178.5,0.0052396086147548085,0.0023211428633821167,-0.0030652570313417886
179.0,0.0054071022856378645,0.0024886365342651727,-0.002717411885393847
179.5,0.0059080833535497404,0.0029896176021770486,-0.0020714193815265037
180.0,0.005910771986164996,0.002992306234792304,-0.0019603497458341073
180.5,0.006053004845587849,0.003134539094215157,-0.0017476888017832794
181.0,0.006214396248062917,0.0032959304966902253,-0.0015550457981689378
181.5,0.0067493692620653285,0.0038309035106926367,-0.0010289822058515228
182.0,0.0071476705773157725,0.004229204825943081,-0.0006803524460601475
182.5,0.007201030641763932,0.00428256489039124,-0.0007175011819182987
183.0,0.00776735860716539,0.0048488928557926985,-0.00028193478143073974
183.5,0.00796917641821437,0.005050710666841679,-0.00024977035154873095
184.0,0.008152664742648846,0.005234198991276154,-0.0002725974362810099
184.5,0.008774721484687975,0.005856255733315283,0.00010964110459505023
185.0,0.008850288739556598,0.005931822988183906,-8.40012361484066e-05
185.5,0.009209865844484997,0.006291400093112305,-1.798118854097301e-05
186.0,0.009410253938698656,0.006491788187325964,-0.00012958541245969464
186.5,0.009849558838752595,0.006931093087379903,-1.403636300026205e-05
187.0,0.010006339196224222,0.00708787344485153,-0.00018549456488818443
187.5,0.010186694976887895,0.007268229225515203,-0.0003301569057643349
188.0,0.010466867735268675,0.0075484019838959835,-0.00036387179783596915
188.5,0.010915307179827721,0.00799684142845503,-0.00021030713496572942
189.0,0.010913295079824022,0.00799482932845133,-0.0004805690892621603
189.5,0.011198016193192623,0.008279550441819931,-0.0004303705134532116
190.0,0.011343560925286938,0.008425095173914246,-0.0004792527625502637
190.5,0.011792448286004892,0.0088739825346322,-0.00017926168702615472
191.0,0.01166639146698262,0.008747925715609927,-0.0004043462459374144
191.5,0.01193149866461687,0.009013032913244179,-0.00018527987501466836
192.0,0.01207209527244232,0.009153629521069628,-3.591362659669667e-05
192.5,0.01182151065380891,0.008903044902436218,-0.0002224156046495441
193.0,0.011569178249432838,0.008650712498060147,-0.00035614829981192933
193.5,0.011455166626947231,0.00853670087557454,-0.00029906905858537516
194.0,0.011389412080064616,0.008470946328691924,-0.0001443881043909391
194.5,0.011536097946189825,0.008617632194817133,0.0002679542687415229
195.0,0.011690914365623173,0.00877244861425048,0.0007287170021165312
195.5,0.011279319916138683,0.008360854164765992,0.0006578067435877352
196.0,0.0111066581180083,0.008188192366635608,0.0008545895371864561
196.5,0.010764981233882044,0.007846515482509352,0.0009049095453920446
197.0,0.0099887052665201,0.007070239515147408,0.0005369308654499267
197.5,0.009007812305474044,0.006089346554101352,-2.5488136266260154e-05
198.0,0.00909762539460728,0.006179159643234589,0.00048713182938061456
198.5,0.008221615957618842,0.00530315020624615,3.2826104296112234e-05
199.0,0.007843001854608464,0.0049245361032357726,6.988540385989648e-05
199.5,0.007516225468756259,0.004597759717383567,0.00014840782866347695
200.0,0.006894931364291816,0.0039764656129191245,-8.167646768775499e-05
200.5,0.006553193511856158,0.003634727760483466,-4.9356406269088215e-05
201.0,0.006419496910708809,0.003501031159336117,0.00017144037368406733
201.5,0.006252669806206312,0.0033342040548336206,0.00033775865484583605
202.0,0.0061761164375921055,0.0032576506862194137,0.0005718110057964854
202.5,0.00584086980215776,0.002922404050785068,0.000523980534420888
203.0,0.0059001305066631645,0.0029816647552904727,0.000847300751911112
203.5,0.005952367457387438,0.003033901706014746,0.0011404917515286835
204.0,0.005521701970851477,0.002603236219478785,0.0009282774097282209
204.5,0.005684675536765983,0.0027662097853932916,0.001288086549346621
205.0,0.005675454190435944,0.002756988439063252,0.0014551932602456254
205.5,0.005552196897272741,0.0026337311459000493,0.001489025529328298
206.0,0.005799599120015275,0.0028811333686425836,0.0018756546204220957
206.5,0.005311629460447608,0.002393163709074916,0.0015104839182406376
207.0,0.005411892637569457,0.0024934268861967653,0.0017185709214705732
207.5,0.005290925496582621,0.002372459745209929,0.001691889161543766
208.0,0.005250743426658591,0.002332277675285899,0.0017338472298208253
208.5,0.0054645986898671515,0.0025461329384944597,0.002019026006875294
209.0,0.005663084809284904,0.0027446190579122126,0.0022792676807289083
209.5,0.005482275209243338,0.002563809457870646,0.0021518040887143547
210.0,0.005496087993847268,0.002577622242474576,0.0022116155617625368
210.5,0.0055902815883642695,0.0026718158369915777,0.0023454242792064137
211.0,0.005668405675549669,0.002749939924176977,0.0024576458719506858
211.5,0.005255586579813596,0.0023371208284409042,0.002074177778362144
212.0,0.005418550247608044,0.002500084496235352,0.0022624269143307115
212.5,0.005149470333076854,0.0022310045817041622,0.0020151636507283774
213.0,0.005126105201655356,0.0022076394502826644,0.0020106654703311807
213.5,0.005466628687698789,0.002548162936326097,0.0023675547746332725
214.0,0.0055834425202430605,0.0026649767688703687,0.002498618460510731
214.5,0.005585929205097739,0.0026674634537250472,0.0025135678265516105
215.0,0.0055680119571157325,0.0026495462057430407,0.002506605233103223
215.5,0.005571252955251923,0.0026527872038792314,0.0025195286695463355
216.0,0.005757685649140745,0.002839219897768053,0.0027145698810479846
216.5,0.00564640401872831,0.0027279382673556186,0.00261098891466242
217.0,0.0056395532823119866,0.0027210875309392948,0.00261106956601871
217.5,0.005620664837319437,0.002702199085946745,0.0025984585178457364
218.0,0.005801090853046217,0.0028826251016735253,0.00278460361182952
218.5,0.005756970357607904,0.0028385046062352126,0.002745723128890801
219.0,0.006094227393017475,0.0031757616416447833,0.003087806691234497
219.5,0.005858076442739357,0.002939610691366665,0.0028561230334225047
220.0,0.006320240396346921,0.003401774644974229,0.0033224399510233455
