wavelength,absorbance,absorbance_bk,residual_3gauss
117.0,0.18571733295270995,0.1817411879653362,-0.0025758478452172218
117.5,0.1834490244781151,0.17947287949074134,-0.002974517923989284
118.0,0.18067135245788604,0.1766952074705123,-0.003665621951466025
118.5,0.18135904890790852,0.17738290392053477,-0.0006885004630023395
119.0,0.1800923048814738,0.17611615989410004,0.000522682513813072
119.5,0.1782132215068207,0.17423707651944695,0.0012954617420743164
120.0,0.17614057718030726,0.1721644321929335,0.002033889871513761
120.5,0.17317555738861498,0.16919941240124123,0.0020242951048889957
121.0,0.17042293135449063,0.16644678636711688,0.0023564561945050577
121.5,0.1678236121988596,0.16384746721148585,0.0029561254206265375
122.0,0.16432760416993464,0.16035145918256088,0.002757896716115482
122.5,0.1612617888219684,0.15728564383459465,0.0030728645340051264
123.0,0.15617814117988124,0.1522019961925075,0.0014366589640652794
123.5,0.1526017388845844,0.14862559389721064,0.001357216190053967
124.0,0.14876851696952106,0.1447923719821473,0.0010522357276687988
124.5,0.14405752895894833,0.14008138397157457,-0.00011891218101972578
125.0,0.13981962106445037,0.1358434760770766,-0.0008269144144196494
125.5,0.13591666994855855,0.1319405249611848,-0.0012337134726505827
126.0,0.1322670093341438,0.12829086434677003,-0.001447530051976037
126.5,0.12814109077892555,0.12416494579155181,-0.0022276354383227864
127.0,0.12500580190536315,0.1210296569179894,-0.0021404140425437257
127.5,0.12190797157283292,0.11793182658545918,-0.002176143715340653
128.0,0.11918761003762007,0.11521146505024633,-0.0020358982839650402
128.5,0.11698599154408677,0.11300984655671303,-0.0016234154781603616
129.0,0.11531195272698253,0.11133580773960879,-0.0009785091914742972
129.5,0.1134960032154764,0.10951985822810266,-0.0008223879641885701
130.0,0.11237595764832586,0.10839981266095212,-0.00037113928755706793
130.5,0.11181968868177888,0.10784354369440514,0.0001882359722116672
131.0,0.11136257817046905,0.1073864331830953,0.0003368132134677071
131.5,0.11157664375102624,0.1076004987636525,0.0005947098312380633
132.0,0.11245862133048852,0.10848247634311478,0.0009112584456043571
132.5,0.11393435723674294,0.1099582122493692,0.001171668431650355
133.0,0.11582419782859332,0.11184805284121958,0.0011647687374413823
133.5,0.1181826073442891,0.11420646235691537,0.0009249500830038893
134.0,0.12131731847348812,0.11734117348611438,0.0007534862891287603
134.5,0.12511392011695904,0.1211377751295853,0.0005450097386864028
135.0,0.12905906566998454,0.1250829206826108,-0.00018780156189687758
135.5,0.13417877231688427,0.13020262732951052,-0.0003749684266955433
136.0,0.13990156173083687,0.13592541674346312,-0.0005257290166226503
136.5,0.14576508125094256,0.1417889362635688,-0.0010222574115948402
137.0,0.15256145188067372,0.14858530689329996,-0.0009753673377174699
137.5,0.15993504479399767,0.15595889980662392,-0.000628493761134219
138.0,0.16763638792765145,0.1636602429402777,-0.00010620714859088665
138.2,0.170679597183978,0.16670345219660423,5.2627719511449955e-05
138.4,0.173485086667415,0.16950894168004124,-2.0220656209934962e-05
138.6,0.17638133325473748,0.17240518826736373,1.2790708029064568e-05
138.8,0.17949422874785517,0.17551808376048142,0.00028670247503392865
139.0,0.18296737291667267,0.17899122792929892,0.0009543056282015072
139.2,0.18575549459074392,0.18177934960337017,0.0009795215552911296
139.4,0.1885143417015666,0.18453819671419286,0.00102725074413193
139.6,0.1907017025895165,0.18672555760214274,0.0005643526723540515
139.8,0.19373454235483337,0.1897583973674596,0.0010167409358848023
140.0,0.19662097217492,0.19264482718754625,0.0014013117980598844
140.2,0.1985658141171273,0.19458966912975353,0.0009314689393133402
140.4,0.200667272098446,0.19669112711107226,0.0007137552979713802
140.6,0.20277198431013987,0.19879583932276612,0.000602867544684832
140.8,0.20442712854583903,0.20045098355846527,0.0001537248361899446
141.0,0.20595188545937332,0.20197574047199957,-0.00030710293800456645
141.2,0.20762750150266007,0.20365135651528632,-0.0004913655005724105
141.4,0.208537069638194,0.20456092465082024,-0.0013093828874295166
141.6,0.21022700428145924,0.2062508592940855,-0.0012085999343463827
141.8,0.21151487076223777,0.207538725774864,-0.00136578417173569
142.0,0.21285196572398943,0.20887582073661567,-0.0013244706473972967
142.2,0.21397701388428284,0.21000086889690908,-0.0013412882204244525
142.4,0.21507080048802352,0.21109465550064976,-0.0012313479870074695
142.6,0.21586725670498327,0.21189111171760952,-0.0012571766036565124
142.8,0.21654417822666192,0.21256803323928816,-0.0012380142916682269
143.0,0.21765828759452088,0.21368214260714713,-0.0006147670477670286
143.2,0.21796728343793312,0.21399113845055937,-0.0006279699529303517
143.4,0.2186119728016737,0.21463582781429993,-0.00013566547749879754
143.6,0.21823079376149968,0.21425464877412592,-0.0004988896627531048
143.8,0.21891097689632527,0.21493483190895152,0.0003694823177174955
144.0,0.21803037028875016,0.2140542253013764,-0.00015344416788931614
144.2,0.21762666234969152,0.21365051736231777,-3.13640364981993e-05
144.4,0.21684171848212064,0.21286557349474688,-0.00012443780182788688
144.6,0.21611669627918517,0.21214055129181142,5.823368187551914e-06
144.8,0.21586256829409553,0.21188642330672178,0.0007670819802745865
145.0,0.2148498627633512,0.21087371777597744,0.0009259184655354968
145.2,0.21353589383170388,0.20955974884433012,0.0009350671154232104
145.4,0.21226785615603777,0.20829171116866402,0.0011365188657826153
145.6,0.21048991154706448,0.20651376655969073,0.0009686189409165713
145.8,0.20871594428344728,0.20473979929607353,0.0009388364113253334
146.0,0.20658254793543207,0.20260640294805832,0.0006767689809905331
146.2,0.20518504344843497,0.20120889846106121,0.0012701832829225546
146.4,0.20323981645781192,0.19926367147043816,0.001427379217302266
146.6,0.2007022294145088,0.19672608442713505,0.0010951344908423088
146.8,0.1982843477045496,0.19430820271717586,0.0009764691119111824
147.0,0.1955349060981322,0.19155876111075845,0.0006106567143237818
147.2,0.19290991188114193,0.18893376689376817,0.0004438795351561775
147.4,0.190045214438038,0.18606906945066426,0.00010185719089830791
147.6,0.18705923088574064,0.1830830858983669,-0.00030736090391567106
147.8,0.18455587438437904,0.18057972939700528,-0.00019039276965043817
148.0,0.18119658948309944,0.1772204444957257,-0.0008964065041555114
148.2,0.17793028292348095,0.1739541379361072,-0.001487100253652729
148.4,0.17518583177800565,0.1712096867906319,-0.001544098224376067
148.6,0.171999933857668,0.16802378887029426,-0.0020409986565168847
148.8,0.17004052068704295,0.1660643756996692,-0.0013198545925483807
149.0,0.16726550246471902,0.16328935747734527,-0.0014323194267559514
149.2,0.16527097770146004,0.1612948327140863,-0.0007913262117161812
149.4,0.16280438192319588,0.15882823693582213,-0.0006578282441505323
149.6,0.16072405534442452,0.15674791035705077,-0.00018112314209128844
149.8,0.15808692612520955,0.1541107811378358,-0.00031106608125600066
150.0,0.1564365304396501,0.15246038545227636,0.0004900466473378162
150.5,0.15265722655831956,0.1486810815709458,0.002567210376878959
151.0,0.1467139496666655,0.14273780467929176,0.0020621147939864637
151.5,0.14111431025239488,0.13713816526502112,0.0014864946539483725
152.0,0.13591118353746592,0.13193503855009217,0.0009448235583595643
152.5,0.13094060974834043,0.12696446476096668,0.00036706768106500864
153.0,0.12622613244273606,0.12224998745536232,-9.709854858837297e-05
153.5,0.12203535919175428,0.11805921420438054,-3.58921453311456e-05
154.0,0.11703717854883984,0.1130610335614661,-0.0006347702355692098
154.5,0.1122382818409892,0.10826213685361546,-0.0007567948399750252
155.0,0.10664917143523128,0.10267302644785754,-0.0012916390549846252
155.5,0.10140143311824006,0.09742528813086632,-0.0010495272527001887
156.0,0.09563772512229408,0.09166158013492035,-0.0008773123245112008
156.5,0.08931775415690675,0.08534160916953301,-0.0008528661580792518
157.0,0.0833756349912296,0.07939949000385586,-0.0001226763318645102
157.5,0.07722337995015241,0.07324723496277867,0.0006110676855096836
158.0,0.07048752742419001,0.06651138243681627,0.0008393632503358867
158.5,0.0640822130525626,0.06010606806518887,0.0013327938935549857
159.0,0.05794059484644174,0.053964449859068,0.0018856546878198571
159.5,0.051142465826925707,0.04716632083955197,0.001454256705508028
160.0,0.04461262997770115,0.04063648499032741,0.0008630758298353997
160.5,0.03856240461245664,0.0345862596250829,0.0002507211773723553
161.0,0.03326020579508914,0.0292840608077154,-0.00015822537678926094
161.5,0.02872529186908228,0.024749146881708536,-0.0003609536060224586
162.0,0.024122582398958137,0.020146437411584395,-0.0011851337083003816
162.5,0.0209428637780831,0.016966718790709358,-0.0011134895601904345
163.0,0.01794190005673387,0.013965755069360129,-0.001349967250542627
163.5,0.015370283804463132,0.01139413881708939,-0.001595039379349683
164.0,0.01332508592513527,0.009348940937761528,-0.0016986344449698692
164.5,0.012097184784297688,0.008121039796923947,-0.0013165419804665353
165.0,0.010301353990907196,0.006325209003533454,-0.0017831096088822248
165.5,0.009716796215067096,0.005740651227693354,-0.001272569301229821
166.0,0.008872681416240265,0.004896536428866523,-0.001214546382566053
166.5,0.008289299769620095,0.004313154782246353,-0.0010532999417580532
167.0,0.007859708790875924,0.003883563803502182,-0.0008659878223909812
167.5,0.00757414514808959,0.0035980001607158483,-0.0006378481793246913
168.0,0.0069396036754688206,0.0029634586880950787,-0.0008420328966049235
168.5,0.006845211893345927,0.0028690669059721853,-0.0005735713712425742
169.0,0.00635844984216891,0.002382304854795168,-0.000752490363002933
169.5,0.0064853619164555185,0.0025092169290817767,-0.0003629909711676182
170.0,0.006340597339283025,0.0023644523519092834,-0.00028287154451242915
170.5,0.005773950835020537,0.0017978058476467952,-0.0006565340465389553
171.0,0.006046032465298745,0.002069887477925003,-0.0002189430885985509
171.5,0.006355815563719073,0.0023796705763453312,0.0002322195270667688
172.0,0.005703285708280336,0.0017271407209065942,-0.00030056106414608685
172.5,0.005983107314543105,0.002006962327169363,7.921853903929458e-05
173.0,0.005497125027167591,0.0015209800397938495,-0.00032527307312466523
173.5,0.00569596445061205,0.001719819463238308,-6.248533141831416e-05
174.0,0.0055636271886094334,0.0015874822012356916,-0.00014779611033033033
174.5,0.005560076209190178,0.001583931221816436,-0.0001208471789377961
175.0,0.005968458550767985,0.0019923135633942435,0.00030174687876811674
175.5,0.0057381340361135486,0.0017619890487398067,6.948809082090433e-05
176.0,0.005680137813991027,0.0017039928266172856,-6.48730357918079e-06
176.5,0.005830635034623274,0.0018544900472495318,0.00011009632042274981
177.0,0.005514645025484348,0.0015385000381106058,-0.00025557550989262125
177.5,0.0060472014263600205,0.0020710564389862787,0.00021179484106772367
178.0,0.005869373563359284,0.0018932285759855425,-4.6324174226360267e-05
178.5,0.006371390320194163,0.0023952453328204212,0.00036086249996182063
179.0,0.005934538966055876,0.0019583939786821346,-0.0001845989350161767
179.5,0.006127501844746353,0.0021513568573726114,-0.0001130557048776579
180.0,0.006256532646070859,0.002280387658697117,-0.00011706110997801011
180.5,0.005908978434966256,0.0019328334475925144,-0.0006078495835172559
181.0,0.006950497259361186,0.0029743522719874443,0.00028187537860963454
181.5,0.007319662367896537,0.0033435173805227954,0.0004925314378059482
182.0,0.007178381012663007,0.0032022360252892653,0.00018805404608287233
182.5,0.00814579842195482,0.0041696534345810774,0.0009897706713773045
183.0,0.0077488671136400145,0.0037727221262662727,0.0004269336738834972
183.5,0.007941858458949515,0.003965713471575773,0.0004561898985265319
184.0,0.007702054316447821,0.003725909329074079,5.722618252293173e-05
184.5,0.007897222039840323,0.003921077052466581,0.0001001956290753803
185.0,0.00762630706628617,0.003650162078912428,-0.0003136394953935891
185.5,0.008412452520703675,0.004436307533329934,0.0003410628788501936
186.0,0.008274254943520203,0.004298109956146461,8.493376060345233e-05
186.5,0.008581680978046883,0.004605535990673141,0.0002897671032725405
187.0,0.008701491300258964,0.004725346312885222,0.0003239063310295212
187.5,0.008160083866065608,0.0041839388786918666,-0.0002849433942093303
188.0,0.007924714709124519,0.003948569721750777,-0.0005685180506407768
188.5,0.008291609150467958,0.004315464163094216,-0.0002298993277959722
189.0,0.008443327018124544,0.004467182030750802,-8.615700656830136e-05
189.5,0.008151754713210134,0.004175609725836392,-0.0003653563273699825
190.0,0.008927916661129654,0.004951771673755912,0.00044326188944899484
190.5,0.008355787686334215,0.004379642698960473,-7.689065325071614e-05
191.0,0.008243122645653059,0.004266977658279317,-0.0001188978531480216
191.5,0.0085712841497597,0.004595139162385958,0.0002975163063922608
192.0,0.007710347400053144,0.0037342024126794018,-0.0004588751566340851
192.5,0.008241121458028479,0.004264976470654737,0.00019125458097562532
193.0,0.008349482805760745,0.004373337818387003,0.0004321573258615997
193.5,0.008329805970428162,0.0043536609830544205,0.000556479011275173
194.0,0.008176427924904086,0.004200282937530344,0.0005567623958795676
194.5,0.007224695972179158,0.0032485509848054163,-0.0002334679984130122
195.0,0.006967510163587725,0.002991365176213983,-0.000323128558373853
195.5,0.006946928338495508,0.0029707833511217665,-0.0001719395260533032
196.0,0.006350416462113493,0.002374271474739751,-0.0005941461370398749
196.5,0.006217431291598336,0.0022412863042245938,-0.00055191135002544
197.0,0.006243075911444759,0.002266930924071017,-0.000351639894653527
197.5,0.006271416622811124,0.002295271635437382,-0.00015064526731815853
198.0,0.006201141616116621,0.002224996628742879,-5.14792193677875e-05
198.5,0.0060339804890267345,0.0020578355016529926,-5.3504525856422434e-05
199.0,0.005435584723849865,0.001459439736476123,-0.0004920106671397961
199.5,0.005037554642967058,0.0010614096555933159,-0.0007361865681197134
200.0,0.005280970878890035,0.001304825891516293,-0.00034559196049009275
200.5,0.004982222533635892,0.0010060775462621503,-0.0005043347546278944
201.0,0.005326735808786795,0.0013505908214130535,-2.7350179997540948e-05
201.5,0.005110165508904843,0.0011340205215311008,-0.00011921882813094309
202.0,0.004706086000661214,0.0007299410132874723,-0.00040648656427958786
202.5,0.00475334663777743,0.0007772016504036883,-0.0002503208704361236
203.0,0.0048521917390169055,0.0008760467516431636,-5.0403139521780277e-05
203.5,0.004785196965820118,0.0008090519784463759,-2.4004722638940653e-05
204.0,0.005043380967976343,0.0010672359806026014,0.000320112444375618
204.5,0.004873537290870939,0.0008973923034971973,0.00022901588550751286
205.0,0.005061424668566748,0.0010852796811930063,0.0004887816325247868
205.5,0.004502278318434636,0.0005261333310608938,-5.004947376480834e-06
206.0,0.004785361913685439,0.0008092169263116972,0.0003372932479484736
206.5,0.004465813290543817,0.0004896683031700754,7.120215860823562e-05
207.0,0.004690014751704531,0.0007138697643307894,0.00034349926923584655
207.5,0.004834140060115117,0.0008579950727413748,0.0005307540199974908
208.0,0.004255556332060293,0.00027941134468655125,-9.275888575963564e-06
208.5,0.004545324607739626,0.000569179620365884,0.0003148514402492314
209.0,0.004632832045028052,0.0006566870576543106,0.0004328905543705947
209.5,0.00464669102477592,0.0006705460374021779,0.00047380484564736754
210.0,0.004577555838121004,0.0006014108507472618,0.0004285810733574178
210.5,0.004421256331650833,0.000445111344277091,0.0002933615120576903
211.0,0.004647887302761702,0.00067174231538796,0.0005385324326985092
211.5,0.00433432781521149,0.0003581828278377483,0.00024124300460470378
212.0,0.004453384917949672,0.0004772399305759305,0.00037454902213883195
212.5,0.004569656253063529,0.0005935112656897876,0.0005032758672607985
213.0,0.004301365077733523,0.0003252200903597815,0.0002458541639890942
213.5,0.004370059900316688,0.0003939149129429465,0.00032402026244255185
214.0,0.004161413141710623,0.00018526815433688153,0.000123615908004539
214.5,0.004421739054332624,0.00044559406695888256,0.00039110727926989613
215.0,0.003976144987373742,0.0,-4.826255841806558e-05
215.5,0.004202361099811544,0.00022621611243780256,0.00018335728232578445
216.0,0.004773273505795648,0.0007971285184219063,0.0007589598833956657
216.5,0.004766566780577648,0.0007904217932039066,0.0007563242354308247
217.0,0.004978037423989752,0.0010018924366160106,0.0009713298723124826
217.5,0.005107571302463294,0.0011314263150895522,0.0011039354328866002
218.0,0.00496360442184739,0.0009874594344736485,0.0009626404920509089
218.5,0.005159233611304807,0.0011830886239310653,0.0011605972347015394
219.0,0.0051500126403161576,0.0011738676529424157,0.001153407490594124
219.5,0.005164407130044313,0.0011882621426705714,0.0011695784897053274
220.0,0.005245803226359392,0.0012696582389856497,0.0012525323055898978
