wavelength,absorbance,absorbance_bk,residual_3gauss
117.0,1.0882537531155871,1.0899892009659293,-0.01572066519973503
117.5,1.0874041798886251,1.0891396277389673,-0.00635094376466272
118.0,1.076632970061813,1.078368417912155,-0.00557179706651012
118.5,1.067887000487727,1.0696224483380692,-0.0015181143280460496
119.0,1.0525325203770513,1.0542679682273934,-0.0029076067236717407
119.5,1.0441650781041043,1.0459005259544465,0.00376949281678729
120.0,1.0297851900738957,1.0315206379242379,0.00542634432924638
120.5,1.0162479817394892,1.0179834295898313,0.008829231426945139
121.0,0.9959876335662547,0.9977230814165969,0.006321909495161093
121.5,0.9796473375522762,0.9813827854026184,0.008455245109030618
122.0,0.9547386825711773,0.9564741304215195,0.002646034535805586
122.5,0.9403888525121389,0.9421243003624811,0.007923359892656245
123.0,0.9163753519869043,0.9181107998372465,0.003962181761746786
123.5,0.8924369419467011,0.8941723897970433,0.0003928493529781196
124.0,0.8703138619500448,0.872049309800387,-0.00116037577776551
124.5,0.8483685565579598,0.850104004408302,-0.002460519370060976
125.0,0.8240589368369026,0.8257943846872448,-0.00618670936864385
125.5,0.8037356296295864,0.8054710774799286,-0.006139041135227785
126.0,0.7820444253435099,0.7837798731938521,-0.00783813335990824
126.5,0.7634326216412743,0.7651680694916165,-0.007020493704999353
127.0,0.7443705979410944,0.7461060457914366,-0.00741814661408513
127.5,0.7283497857279874,0.7300852335783296,-0.005761126428628693
128.0,0.7130903877177397,0.7148258355680819,-0.00456924580122442
128.5,0.7012143485900206,0.7029497964403628,-0.0014774124113825504
129.0,0.6902589169016561,0.6919943647519983,0.0007810367034138954
129.5,0.6816588943136703,0.6833943421640125,0.0033612154858935206
130.0,0.6752658439030521,0.6770012917533943,0.005832115813592886
130.5,0.6710880140684531,0.6728234619187953,0.007924303526975485
131.0,0.6694945989924816,0.6712300468428238,0.009743362903168462
131.5,0.6704042076310117,0.6721396554813539,0.010968705985580196
132.0,0.6732389711300437,0.6749744189803859,0.010818809073445235
132.5,0.6791075511866216,0.6808429990369638,0.010245670378871585
133.0,0.6880464209074116,0.6897818687577538,0.00918731131439876
133.5,0.6996074248627993,0.7013428727131414,0.007165727111281384
134.0,0.7145972431301899,0.7163326909805321,0.005035293958187359
134.5,0.7325155820354432,0.7342510298857854,0.002427860634536594
135.0,0.7523047871408781,0.7540402349912203,-0.001493311006239284
135.5,0.776090225500125,0.7778256733504672,-0.004291838699874484
136.0,0.802803147692407,0.8045385955427492,-0.006637328496049366
136.5,0.8322403424715774,0.8339757903219196,-0.00825111918863286
137.0,0.8653989093752806,0.8671343572256228,-0.007580293534211635
137.5,0.8998236227434827,0.9015590705938249,-0.006462259713819862
138.0,0.93647581123994,0.9382112590902821,-0.0032705849019128985
138.2,0.9517284402744083,0.9534638881247505,-0.001290056925750127
138.4,0.9656823399130294,0.9674177877633716,-0.00047643490290494306
138.6,0.9794479588646515,0.9811834067149937,0.00032613702032291414
138.8,0.9941915207177551,0.9959269685680973,0.0023291991800195033
139.0,1.0079175726353795,1.0096530204857217,0.003582324881680865
139.2,1.0202205070859351,1.0219559549362773,0.0037244424940907628
139.4,1.0331334454228491,1.0348688932731913,0.0048325212631337155
139.6,1.0447459986652523,1.0464814465155945,0.005039137473638489
139.8,1.05559422122468,1.0573296690750222,0.004922237943367769
140.0,1.0654034519417956,1.0671388997921378,0.0042477964031191195
140.2,1.0751020489984708,1.076837496848813,0.0039833704563949635
140.4,1.084040204159922,1.0857756520102642,0.0035167456277278575
140.6,1.0915076488803896,1.0932430967307318,0.0021734800016208755
140.8,1.0980239422451348,1.099759390095477,0.0005070402957707554
141.0,1.10405460596372,1.1057900538140621,-0.0009852046543830095
141.2,1.1099490634581515,1.1116845113084937,-0.0019241753140950557
141.4,1.1142957317998947,1.116031179650237,-0.0036941085047199618
141.6,1.1184582009010775,1.1201936487514197,-0.004906485318704634
141.8,1.1232218368856377,1.12495728473598,-0.004753522744719518
142.0,1.1255777027905052,1.1273131506408474,-0.006224335784820845
142.2,1.1288989439958164,1.1306343918461585,-0.0059286227576411665
142.4,1.1311275298899732,1.1328629777403154,-0.005909982538709224
142.6,1.1329276849551333,1.1346631328054755,-0.0054925309729387806
142.8,1.1335553689192155,1.1352908167695577,-0.005411457393311281
143.0,1.1346254088775367,1.136360856727879,-0.004045919073144111
143.2,1.1341389550556913,1.1358744029060335,-0.0033916028062850323
143.4,1.1333523978657856,1.1350878457161278,-0.0021918169426997647
143.6,1.1309312629035524,1.1326667107538946,-0.001783598295556521
143.8,1.1287249129785648,1.130460360828907,-0.0003230059371803762
144.0,1.1236526140576364,1.1253880619079786,-0.0008990461122440063
144.2,1.1189434947005115,1.1206789425508537,-0.0002936997401485897
144.4,1.1132591337721716,1.1149945816225137,0.00014068134894063
144.6,1.1068403089457075,1.1085757567960497,0.0006281412244597551
144.8,1.0997993822833052,1.1015348301336474,0.0012615255391605906
145.0,1.091253711716632,1.0929891595669743,0.0011359148017107135
145.2,1.0824848465117607,1.0842202943621029,0.0015078436538153994
145.4,1.0730144422775119,1.074749890127854,0.001871242553834751
145.6,1.0631560875658137,1.0648915354161559,0.0025092953378862415
145.8,1.0530183525724268,1.054753800422769,0.0034975252192130935
146.0,1.0411755642360436,1.0429110120863858,0.003374616234923078
146.2,1.0290526474899724,1.0307880953403146,0.003527313264569898
146.4,1.0163963296033036,1.0181317774536458,0.0036617015527837804
146.6,1.0027446434032627,1.004480091253605,0.003272806074292145
146.8,0.9888127919811049,0.9905482398314471,0.003030578324829003
147.0,0.9733405649898504,0.9750760128401926,0.0016274658986045187
147.2,0.9585879838983404,0.9603234317486826,0.0012742475326810165
147.4,0.9426756027764768,0.944411050626819,4.05653211176249e-05
147.6,0.9266916817419144,0.9284271295922566,-0.0010376241180203305
147.8,0.9110463854962736,0.9127818333466158,-0.0016035232325632975
148.0,0.8948605143836273,0.8965959622339695,-0.002590381709951406
148.2,0.8787848259772079,0.88052027382755,-0.0034017399416489402
148.4,0.8638572712747078,0.86559271912505,-0.0030537041794007624
148.6,0.8494003660479481,0.8511358138982903,-0.0022770353669978594
148.8,0.8358646990465162,0.8376001468968584,-0.0006730547500112261
149.0,0.8220103373699817,0.8237457852203239,0.0004683868259722779
149.2,0.8093870823977325,0.8111225302480747,0.0026498196111697236
149.4,0.7959247670484288,0.797660214898771,0.0037571242728877685
149.6,0.7827162067156905,0.7844516545660327,0.004843157778944285
149.8,0.7696820823596365,0.7714175302099787,0.005793297929904795
150.0,0.7567753846147045,0.7585108324650467,0.006530517432251193
150.5,0.7253227320133101,0.7270581798636523,0.007555925251604423
151.0,0.6942306605963643,0.6959661084467065,0.006485965721871767
151.5,0.6635853822057253,0.6653208300560675,0.0034891544864867896
152.0,0.6344479445859802,0.6361833924363224,-1.309299641250039e-05
152.5,0.6075872278383809,0.6093226756887231,-0.0026493455799270205
153.0,0.5823516282162035,0.5840870760665456,-0.004297840959232357
153.5,0.5581209542416283,0.5598564020919705,-0.0047335469022981025
154.0,0.5324378816062454,0.5341733294565876,-0.005609359071550246
154.5,0.505368557162063,0.5071040050124052,-0.006204500103028421
155.0,0.4771878114032632,0.47892325925360546,-0.0058273766202709965
155.5,0.44822377922926754,0.4499592270796098,-0.004024458255062258
156.0,0.4174840688561927,0.41921951670653496,-0.001965788978954386
156.5,0.3859060676635651,0.38764151551390735,0.000835099932094574
157.0,0.35400012168852235,0.3557355695388646,0.0042281675541673835
157.5,0.3220320623516252,0.3237675102019674,0.007694686060608413
158.0,0.29009970588773426,0.2918351537380765,0.010515824241040084
158.5,0.2573087157673958,0.259044163617738,0.011033468480299041
159.0,0.22529401034059032,0.22702945819093256,0.010238745245466474
159.5,0.19360706509675088,0.19534251294709312,0.007202444582953549
160.0,0.16369548516869795,0.1654309330190402,0.0030723698518268505
160.5,0.13540647661724411,0.13714192446758636,-0.002428043517104489
161.0,0.11120427496762458,0.11293972281796683,-0.006804342586557863
161.5,0.08991378645722149,0.09164923430756373,-0.011080014810237349
162.0,0.07093481170649489,0.07267025955683713,-0.015618954070701505
162.5,0.056151155081864725,0.05788660293220696,-0.018251808389731367
163.0,0.04361281385765658,0.04534826170799881,-0.020624336614580033
163.5,0.03359013232885555,0.035325580179197784,-0.022166928758379542
164.0,0.025779675293335295,0.02751512314367753,-0.022905056843577236
164.5,0.019707250466199373,0.02144269831654161,-0.02306582463773403
165.0,0.014875653883860668,0.016611101734202903,-0.022934273159497677
165.5,0.011077535729860087,0.012812983580202324,-0.022540517777500192
166.0,0.008434441335217825,0.010169889185560062,-0.021618089053096964
166.5,0.006459764929020176,0.008195212779362412,-0.020536945292987868
167.0,0.0047922095841508834,0.0065276574344931195,-0.019565472352757317
167.5,0.003583708278278298,0.005319156128620535,-0.018478126195523914
168.0,0.001982790907811852,0.0037182387581540886,-0.018068087349732392
168.5,0.0014319982651680324,0.003167446115510269,-0.016846485153229156
169.0,0.0006852754034941679,0.0024207232538364046,-0.01602228603043801
169.5,0.00022112956830842352,0.00195657741865066,-0.015087009070852985
170.0,-0.00014231727374936995,0.0015931305765928667,-0.014198049941763847
170.5,-0.0005414662505108614,0.001193981599831375,-0.013471599233254456
171.0,-0.0011878214192155888,0.0005476264311266477,-0.013102314349675723
171.5,-0.001001117746399533,0.0007343301039427035,-0.011995772614658517
172.0,-0.0014756985224481484,0.00025974932789408806,-0.011634344831727912
172.5,-0.0014361278790425275,0.000299319971299709,-0.010832428466389647
173.0,-0.0016859468787613972,4.9500971580839284e-05,-0.010384915595532849
173.5,-0.0016984431085855659,3.700474175667061e-05,-0.009757742601934627
174.0,-0.0017354478503422365,0.0,-0.009206520424326438
174.5,-0.001712236968061335,2.3210882280901403e-05,-0.008641311627119126
175.0,-0.0015571886488588863,0.00017825920148335024,-0.007986201048048097
175.5,-0.0014979517803065672,0.00023749607003566934,-0.007465409395642822
176.0,-0.001148442515152374,0.0005870053351898624,-0.006690263646934755
176.5,-0.0007563769323006895,0.0009790709180415471,-0.005906728110436365
177.0,-0.0007317416432294902,0.0010037062071127463,-0.005523892732111651
177.5,-0.0004581608366003058,0.0012772870137419308,-0.004925369937611762
178.0,-0.00044810610640315,0.0012873417439390866,-0.004624536769118766
178.5,-5.14619534222424e-05,0.001683985896919994,-0.0039731231009791
179.0,-0.00010149842145997348,0.001633949428882263,-0.003807183064882847
179.5,0.0006919776893107315,0.002427425539652968,-0.0028402053668442552
180.0,0.0007608573734535332,0.0024963052237957696,-0.002644782291656578
180.5,0.0009725562551219965,0.002708004105464233,-0.0023586167218952302
181.0,0.0022519631322455258,0.003987410982587762,-0.0010623274586322971
181.5,0.0030027310303582413,0.004738178880700478,-0.0003578278900837964
182.0,0.003286290269321011,0.005021738119663248,-0.0001889025472947628
182.5,0.004020378000635419,0.0057558258509776555,0.0003577991753516592
183.0,0.0043655533830741005,0.006101001233416337,0.0004397972915724021
183.5,0.004890067094815532,0.006625514945157769,0.0006241785094969875
184.0,0.005290973845365543,0.007026421695707779,0.0006092038067451863
184.5,0.006043556597818825,0.007779004448161061,0.0008741491553811691
185.0,0.006310185463230865,0.008045633313573101,0.0005884563686669366
185.5,0.007315630254196339,0.009051078104538576,0.000987171880442509
186.0,0.007399879532711101,0.009135327383053338,0.000423694939023566
186.5,0.008450995822023678,0.010186443672365915,0.0008023477694121487
187.0,0.008648432285250002,0.010383880135592239,0.0003211933188875561
187.5,0.008951016689721153,0.01068646454006339,-4.06743935882168e-05
188.0,0.00969463034902974,0.011430078199371977,7.36978888008187e-05
188.5,0.01030985578162809,0.012045303631970327,0.0001158155836656332
189.0,0.010866857688199326,0.012602305538541563,0.00017562296167433072
189.5,0.01066817447916588,0.012403622329508117,-0.0004266693559739111
190.0,0.011102903180914937,0.012838351031257174,-0.00028726455635254104
190.5,0.010910255454118776,0.012645703304461013,-0.0006559285056712289
191.0,0.011076020964296888,0.012811468814639125,-0.0005400229613351289
191.5,0.010941724165157842,0.012677172015500079,-0.0005956061525349589
192.0,0.010868504265323192,0.012603952115665428,-0.0004635595418464311
192.5,0.011046924166763044,0.012782372017105281,4.045670007175352e-05
193.0,0.01053944795006393,0.012274895800406168,-3.106726625411345e-05
193.5,0.010714331592687688,0.012449779443029925,0.0006770262662585194
194.0,0.01016733429825528,0.011902782148597517,0.0007450241349703859
194.5,0.009059671335926415,0.010795119186268652,0.00031711291466231945
195.0,0.008226848215693206,0.009962296066035443,0.000211042178741995
195.5,0.007242503240438429,0.008977951090780666,-1.7244105060137266e-05
196.0,0.006258676469973436,0.007994124320315673,-0.00023263327651242352
196.5,0.005362875467780308,0.007098323318122544,-0.00036318890832554105
197.0,0.004910010701457551,0.006645458551799788,-6.776260618315388e-05
197.5,0.003710571801804599,0.0054460196521468355,-0.0005475100352494442
198.0,0.0034167443803450807,0.005152192230687317,-0.00015960910990524182
198.5,0.00267672246280146,0.004412170313143697,-0.00026291382567383923
199.0,0.002015409952345081,0.0037508578026873175,-0.00033733205387376404
199.5,0.0011146473142104863,0.0028500951645527225,-0.0007037685200873191
200.0,0.0012661945524484602,0.0030016424027906967,-7.137738889162774e-05
200.5,0.0009029667425605712,0.002638414592902808,-6.603884883993761e-06
201.0,0.0006501011702707425,0.002385549020612979,0.00011758650450555651
201.5,0.0009577990796602233,0.00269324693000246,0.000754253534954912
202.0,7.82204406593856e-05,0.0018136682910016222,0.00015909627843870098
202.5,0.00011976954528333784,0.0018552173956255743,0.00044448491189106134
203.0,0.0003391333565404975,0.002074581206882734,0.0008712794791633557
203.5,0.0002520353010412276,0.001987483151383464,0.0009594020330415975
204.0,0.0001534560100780792,0.0018889038604203157,0.0010079143307933388
204.5,8.504604653863793e-05,0.0018204938968808745,0.0010623244064861057
205.0,0.00023238278640921504,0.0019678306367514513,0.0013117707719854676
205.5,-6.309511597507747e-05,0.001672352734367159,0.0011009131929145856
206.0,5.486926642323201e-05,0.0017903171167654684,0.0012888699891898299
206.5,0.0001440327539197626,0.0018794806042619992,0.0014358988959523185
207.0,0.00026979710841437644,0.002005244958756613,0.001609555493887242
207.5,0.000331725765375431,0.0020671736157176677,0.0017112331670329248
208.0,0.0003005905000234483,0.002036038350365685,0.0017132391653514735
208.5,0.00034968835308759575,0.0020851362034298325,0.0017901440997678427
209.0,0.0006811493657951195,0.0024165972161373558,0.0021451230879977706
209.5,0.0006208408510484634,0.0023562887013906996,0.002104892561791519
210.0,0.0005279992516736985,0.002263447102015935,0.0020293726079941
210.5,0.00027213741349493094,0.0020075852638371675,0.0017886219409178276
211.0,0.0006483564039659623,0.002383804254308199,0.002178174262935009
211.5,0.00047864386425830306,0.0022140917146005394,0.0020203578971054346
212.0,0.000942421151499112,0.0026778690018413485,0.0024948610371539194
212.5,0.0005951740508074017,0.002330621901149638,0.0021573776107668063
213.0,0.0009822249457110308,0.0027176727960532675,0.0025533919365003954
213.5,0.0005069066221518616,0.002242354472494098,0.0020863626764846405
214.0,0.0004940818462381911,0.0022295296965804275,0.0020812505581202278
214.5,0.0007821968769653159,0.002517644727307552,0.002376578345156771
215.0,0.0007857818748489833,0.00252122972519122,0.0023869363119440115
215.5,0.000872725077623412,0.0026081729279656485,0.002480260351856699
216.0,0.0013218823824955883,0.003057330232837825,0.00293544458378411
216.5,0.0010977866097393605,0.002833234460081597,0.002717052920885347
217.0,0.0017844842608660957,0.0035199321112083324,0.0034091575716176077
217.5,0.0016031879141632005,0.0033386357645054368,0.003232992743342883
218.0,0.0017852457351143515,0.003520693585456588,0.0034199251281398168
218.5,0.0016362069381503242,0.0033716547884925607,0.0032755200878909533
219.0,0.0016641942940980295,0.0033996421444402658,0.003307914695843683
219.5,0.0017552783449565647,0.003490726195298801,0.0034031923446539362
220.0,0.001887513301713844,0.0036229611520560805,0.0035394189334644922
