wavelength,absorbance,absorbance_bk,residual_3gauss,Gauss_1,Gauss_2,Gauss_3,Gauss_4,Gauss_fit
117.0,0.4326847049920765,0.43742837454807504,-0.005606375175378597,4.856357446675563e-07,1.3320438894090068e-56,0.44303426408770896,1.2558085760686372e-62,0.44303474972345364
117.5,0.42874994554591733,0.43349361510191586,-0.005673255248899778,8.957175081608648e-07,1.0087050177519853e-54,0.4391659746333075,2.461863906901794e-61,0.43916687035081564
118.0,0.42494405723545114,0.4296877267914497,-0.005071151707716548,1.6207409376669954e-06,6.833945510367924e-53,0.43475725775822854,4.5572422617579924e-60,0.4347588784991662
118.5,0.4221163547151719,0.4268600242711704,-0.002982699469459227,2.878193557276169e-06,4.1520345351545787e-51,0.4298398455470724,7.97496405874051e-59,0.42984272374062965
119.0,0.41832627163648795,0.4230699411924865,-0.0013813136516515612,5.018427442146867e-06,2.2674042748106913e-49,0.4244462364166959,1.320759566653006e-57,0.42445125484413804
119.5,0.4141673331299626,0.41891100268596115,0.0002929563199344787,8.594680669184788e-06,1.1154461876006e-47,0.4186094516853575,2.072316936608952e-56,0.4186180463660267
120.0,0.4110717247822083,0.41581539433820686,0.0034381252055105116,1.4463565517512434e-05,4.9541633889209615e-46,0.41236280556717886,3.0837866415882915e-55,0.41237726913269634
120.5,0.4050605355892355,0.409804205145234,0.004040589527481431,2.3925972824173867e-05,1.9907757204595398e-44,0.4057396896449284,4.356685625650184e-54,0.4057636156177526
121.0,0.3991628445149141,0.4039065140709126,0.005094221384392472,3.892007455895228e-05,7.252895085431709e-43,0.39877337261196116,5.849379900863889e-53,0.39881229268652013
121.5,0.3924523103050794,0.3971959798610779,0.005636884553365806,6.227947818927647e-05,2.4006192890661417e-41,0.39149681582952284,7.470906265585883e-52,0.3915590953077121
122.0,0.384172425018058,0.3889160945740565,0.004875519311042575,9.807024291660725e-05,7.233082285211007e-40,0.38394250502009736,9.085842344280167e-51,0.38404057526301394
122.5,0.3767871116968125,0.38153078125281104,0.005236463058078955,0.00015201998258038352,1.9877293626906154e-38,0.37614229821215167,1.0531611951290105e-49,0.3762943181947321
123.0,0.36615037080318286,0.3708940403591814,0.0025347003091631404,0.00023205018300378238,4.99172900910052e-37,0.3681272898670145,1.1645616131137705e-48,0.36835934005001825
123.5,0.3577807858035519,0.3625244553595504,0.0022478457157321663,0.0003489186888490571,1.1476566325837838e-35,0.3599276909549692,1.2295875483746338e-47,0.36027660964381825
124.0,0.34848467400955746,0.353228343565556,0.001138646284372491,0.0005169726764530429,2.4200767250557796e-34,0.35157272460473044,1.2407051729051451e-46,0.3520896972811835
124.5,0.3390525457714043,0.34379621532740284,-4.9324590578436744e-05,0.0007550030902284887,4.688928213382269e-33,0.3430905368277528,1.1974689936797216e-45,0.3438455399179813
125.0,0.32891888815469533,0.33366255771069386,-0.001932743495545286,0.001087179490548985,8.361784912943495e-32,0.33450812171569017,1.1064014317577814e-44,0.33559530120623915
125.5,0.320043370184129,0.3247870397401275,-0.0026082505606562223,0.0015440298761247365,1.3748080451773983e-30,0.325851260424659,9.794272873658406e-44,0.32739529030078374
126.0,0.31183408028558585,0.3165777498415844,-0.002730137377999431,0.0021634140268066543,2.0874831197705357e-29,0.31714447319277717,8.313677397719091e-43,0.3193078872195838
126.5,0.30318233091673025,0.3079260004727288,-0.003476405513394565,0.002991422399651986,2.9318771712600246e-28,0.30841098358647134,6.772024796835119e-42,0.31140240598612334
127.0,0.29561300168251287,0.3003566712385114,-0.0033991400233306934,0.004083117126905963,3.815037564430308e-27,0.29967269413493614,5.297656947027189e-41,0.3037558112618421
127.5,0.288155668958596,0.29289933851459454,-0.003553853015013264,0.005503019040008812,4.6063312129693917e-26,0.290950172489599,3.98306468938905e-40,0.2964531915296078
128.0,0.2818908008690558,0.28663447042505436,-0.002953413681213879,0.007325236871246665,5.16860013602546e-25,0.2822626472350216,2.8803178402138324e-39,0.28958788410626823
128.5,0.2764775894887164,0.28122125904471496,-0.0020398872535207224,0.009633133820128738,5.397538206659936e-24,0.2736280124781069,2.0047832948833642e-38,0.2832611462982357
129.0,0.2717055176930317,0.2764491872490302,-0.0011320873016898991,0.012518434198436545,5.2535509093382744e-23,0.26506284035228356,1.3440213830592782e-37,0.2775812745507201
129.5,0.2679842841837691,0.2727279537397676,6.586310005690654e-05,0.016079690048327235,4.772656547686185e-22,0.2565824005913835,8.684761228868235e-37,0.2726620906397107
130.0,0.2647511198292226,0.26949478938522115,0.000874048159829055,0.02042005487256631,4.05246755695562e-21,0.24820068635282577,5.41274324867076e-36,0.2686207412253921
130.5,0.2626564579275968,0.2674001274835953,0.0018253335775759716,0.025644348405625333,3.220475521095364e-20,0.239930445500394,3.255918192668349e-35,0.26557479390601935
131.0,0.261445681357361,0.26618935091335955,0.002550693176851193,0.03185544114426713,2.3984888057868377e-19,0.23178321659224121,1.8915101419068067e-34,0.26363865773650835
131.5,0.2614249165784546,0.26616858613445316,0.003249179688570414,0.039150037587151756,1.6762402717414422e-18,0.22376936885873097,1.0619393349077073e-33,0.26291940644588274
132.0,0.2620552076179556,0.2667988771739541,0.0032867423169885557,0.04761398936048548,1.100695457036757e-17,0.2158981454964801,5.7652418411171616e-33,0.26351213485696556
132.5,0.2640162789324515,0.26875994848845003,0.0032649192936089477,0.057317319546245825,6.799390093391258e-17,0.20817770964859517,3.0284991676382884e-32,0.2654950291948411
133.0,0.2673276218677712,0.27207129142376973,0.0031469157391688096,0.06830918319868672,3.9561483470201006e-16,0.20061519248591378,1.540243266438625e-31,0.2689243756846009
133.5,0.2717099102942952,0.27645357985029373,0.002623815039591526,0.08061302196130717,2.170659116053864e-15,0.1932167428493929,7.588528566160485e-31,0.2738297648107022
134.0,0.27720214245698915,0.2819458120129877,0.001736044906018197,0.09422218914792467,1.1244307290107338e-14,0.18598757795903356,3.6239437685861965e-30,0.2802097671069695
134.5,0.28428211022984845,0.289025779785847,0.0009974222067430927,0.10909632283960047,5.5054217919363806e-14,0.17893203473944838,1.678437086775773e-29,0.2880283575791039
135.0,0.2922042459745139,0.2969479155305124,-0.00026443278614290966,0.12515872696051986,2.5506423827621015e-13,0.17205362135588037,7.543407186417174e-29,0.29721234831665533
135.5,0.30169892813425325,0.3064425976902518,-0.001207454816335718,0.14229498390857384,1.1193956874068965e-12,0.16535506859689425,3.291570465117553e-28,0.3076500525065875
136.0,0.3123757932677367,0.3171194628237352,-0.0020718866369082156,0.16035296867526672,4.658614220377227e-12,0.15883838078071807,1.3952157805294427e-27,0.3191913494606434
136.5,0.3243620595891548,0.32910572914515335,-0.0025435233017142567,0.17914436652732174,1.8404461795272323e-11,0.1525048859011414,5.7478717323066114e-27,0.3316492524468676
137.0,0.3374319505435143,0.34217562009951286,-0.0026273832682915943,0.19844771853292406,6.909194107088777e-11,0.14635528476578843,2.3026107636872015e-26,0.34480300336780445
137.5,0.35189735814721945,0.356641027703218,-0.0017616081600132505,0.21801293670217958,2.4672029926512364e-10,0.14038969891433134,8.974239214655129e-26,0.35840263586323123
138.0,0.3670734462142752,0.3718171157702737,-0.000357751151179142,0.2375671489458659,8.388451625655979e-10,0.13460771713674183,3.404473398068405e-25,0.37217486692145285
138.2,0.3728351990115864,0.37757886856758494,-8.872204762355729e-05,0.2453214416830075,1.3502127001522346e-09,0.1323461475819883,5.760159347192022e-25,0.3776675906152085
138.4,0.37837556326943256,0.3831192328254311,-3.4335338645608005e-06,0.25300892640176414,2.1567890431042825e-09,0.13011373780074248,9.704862324497908e-25,0.38312266635929565
138.6,0.3837857513319771,0.38852942088797565,8.48468575048722e-06,0.2606105339469462,3.4191987117627684e-09,0.1279103988360802,1.6282742863204983e-24,0.38852093620222516
138.8,0.39000371478057466,0.3947473843365732,0.000904189352993634,0.26810715839052884,5.379948094431312e-09,0.12573603121310262,2.720582673348664e-24,0.39384319498357956
139.0,0.39597251200310263,0.40071618155910116,0.0016459037585501712,0.2754797440433469,8.402229987753686e-09,0.1235905253549741,4.526945210795663e-24,0.399070277800551
139.2,0.4008304828170106,0.40557415237300914,0.0013910045319233677,0.28270937282409103,1.3025644718920538e-08,0.12147376199135004,7.501880877831904e-24,0.4041831478410858
139.4,0.40654634382559496,0.4112900133815935,0.0021270293912623583,0.2897773513856916,2.0045519372123714e-08,0.11938561255912018,1.2381386213071584e-23,0.40916298399033113
139.6,0.41120129840543856,0.4159449679614371,0.001953700338579334,0.29666529740262776,3.062484127788568e-08,0.11732593959538876,2.035237171730231e-23,0.41399126762285776
139.8,0.41586241259808254,0.4206060821540811,0.0019562141490832574,0.30335522443152463,4.645084811185781e-08,0.1152945971226251,3.3321135822102396e-23,0.4186498680049978
140.0,0.4208514373443356,0.42559510690033414,0.002473981150717175,0.3098296247714761,6.995219240849302e-08,0.11329143102594848,5.433702444217102e-23,0.42312112574961697
140.2,0.4245302941764601,0.42927396373245863,0.00188602994263809,0.31607154976982527,1.0459749978486591e-07,0.11131627942249549,8.825826057381962e-23,0.42738793378982054
140.4,0.42834073190317706,0.4330844014591756,0.001650586090991557,0.3220646870430712,1.553022594837036e-07,0.10936897302285337,1.4279414719066255e-22,0.43143381536818404
140.6,0.4316241815043729,0.4363678510603714,0.0011248524861898201,0.3277934341111174,2.2897852277288026e-07,0.10744933548454141,2.301298535328073e-22,0.4352429985741816
140.8,0.4340666315116307,0.43881030106762925,9.814063338831058e-06,0.333242967975727,3.3527103625158214e-07,0.10555718375752715,3.694493533123216e-22,0.4388004870042904
141.0,0.4366496197193649,0.4413932892753634,-0.000698836891161847,0.3383993102103504,4.875343820322828e-07,0.10369232842179284,5.908374931638608e-22,0.44209212616652527
141.2,0.43912200845418053,0.44386567801017907,-0.0012389872935645863,0.3432493871682177,7.04118575298485e-07,0.10185457401695071,9.412913488145228e-22,0.44510466530374365
141.4,0.4410564763895408,0.44580014594553935,-0.0020256684218495913,0.34778108495799115,1.0100454574170664e-06,0.10004371936394034,1.493944891042033e-21,0.44782581436738894
141.6,0.44349471550362907,0.4482383850596276,-0.0020059108754592048,0.3519832988811591,1.4391750987651179e-06,0.09825955787882897,2.362169685043767e-21,0.4502442959350868
141.8,0.44506774605018146,0.44981141560618,-0.0025384763247058295,0.35584597707199805,2.036980135418667e-06,0.09650187787875239,3.7210459552178165e-21,0.4523498919308858
142.0,0.44668010722861046,0.451423776784609,-0.0027097082905768177,0.3593601581289638,2.8640661786897133e-06,0.09477046288004333,5.8399312867215306e-21,0.4541334850751858
142.2,0.4481245603221948,0.4528682298781933,-0.002718865183261421,0.36251800257525374,4.0005976080899075e-06,0.0930650918885929,9.131675020717165e-21,0.4555870950614547
142.4,0.4495092470475343,0.45425291660353284,-0.002450992923845041,0.3653128180354953,5.551809375399823e-06,0.09138553968250718,1.422670483022382e-20,0.4567039095273779
142.6,0.45018763951169294,0.45493130906769147,-0.0025470008898310637,0.36773907806460937,7.654805794953818e-06,0.08973157708711821,2.2084136752781643e-20,0.45747830995752253
142.8,0.45066676817967827,0.4554104377356768,-0.0024954549853303254,0.36979243461336986,1.0486865220861656e-05,0.08810297124241637,3.4157788930945416e-20,0.4579058927210071
143.0,0.45140973630414394,0.45615340586014247,-0.0018300796486355186,0.3714697241625876,1.427548320657402e-05,0.08649948586298381,5.264330982718926e-20,0.457983485508778
143.2,0.45154970401378863,0.45629337356978716,-0.0014157859185517374,0.3727689676038009,1.931039403896196e-05,0.08492088149049902,8.08446990051765e-20,0.4577091594883389
143.4,0.4514424576744772,0.45618612723047575,-0.0008961103057568143,0.37368936398839125,2.5957808936985765e-05,0.08336691573890433,1.237159127872721e-19,0.45708223753623256
143.6,0.4506549465679502,0.4553986161239487,-0.0007046828131836436,0.37423127830889,3.4677095924959016e-05,0.08183734353231736,1.8865828283026838e-19,0.45610329893713236
143.8,0.44979885502715466,0.4545425245831532,-0.00023165636658634137,0.3743962235154953,4.604009846680785e-05,0.08033191733577746,2.8669033393651037e-19,0.45477418094973954
144.0,0.4481787115235428,0.45292238107954136,-0.00017559655099402827,0.3741868370072454,6.075324436159277e-05,0.07885038737892833,4.341577556702149e-19,0.4530979776305354
144.2,0.44612314148136384,0.45086681103736237,-0.00021222523625530343,0.3736068518706369,7.968253025509664e-05,0.0773925018727257,6.552240273381613e-19,0.4510790362736177
144.4,0.4439281027619316,0.44867177231793015,-5.1179447725813176e-05,0.37266106316851805,0.00010388137785897098,0.07595800721927892,9.85485235915806e-19,0.44872295176565596
144.6,0.4416015603702264,0.44634522992622494,0.0003086708589887799,0.37135528960868847,0.0001346212436228632,0.07454664821492485,1.4771980444980545e-18,0.44603655906723616
144.8,0.4390566512945452,0.4438003208505437,0.0007723969361584926,0.36969633094465854,0.00017342472308543754,0.07315816824664124,2.20681424778894e-18,0.4430279239143852
145.0,0.4362487434627649,0.4409924130187634,0.0012860813319199305,0.36769192148041235,0.00022210072451891728,0.07179230948191222,3.2858018388057504e-18,0.4397063316868435
145.2,0.4326918479617584,0.43743551751775694,0.0013532433035824964,0.365350680066699,0.00028278109532760796,0.07044881305214784,4.876132454662434e-18,0.43608227421417445
145.4,0.4291195895215528,0.43386325907755136,0.0016958249871169562,0.36268205698841005,0.0003579578722470903,0.06912741922977726,7.212371403576881e-18,0.4321674340904344
145.6,0.4249413171160416,0.42968498667204014,0.0017103208239894752,0.35969627815096494,0.0004505200979598001,0.06782786759912587,1.06330776011042e-17,0.42797466584805066
145.8,0.4204310313514816,0.4251747009074801,0.0016567277982277306,0.3564042869784285,0.0005637889096348988,0.066549897221189,1.5625285806938737e-17,0.4235179731092524
146.0,0.4156159977322492,0.42035966728824775,0.0015471866897829867,0.35281768443744643,0.0007015493685956334,0.06529324679242274,2.2887309420312813e-17,0.41881248059846476
146.2,0.4111531524344984,0.41589682199049693,0.002022422317395023,0.3489486675990888,0.000868077276347946,0.06405765479766508,3.341711252888198e-17,0.4138743996731019
146.4,0.4055964443023672,0.4103401138583657,0.00161912803160158,0.3448099671455513,0.001068159023909819,0.06284285965730298,4.8636247618042444e-17,0.40872098582676414
146.6,0.39996955590761424,0.40471322546361277,0.0013427390107115245,0.34041478422058125,0.0013071023635087835,0.06164859986881116,7.056309769926668e-17,0.40337048645290124
146.8,0.39473614897023673,0.39947981852623526,0.0016377414820650804,0.33577672701154554,0.0015907358898557178,0.060474614142768814,1.0205424108470902e-16,0.3978420770441702
147.0,0.3879544846270721,0.39269815418307064,0.0005423702238370187,0.33090974743771495,0.0019253949880334972,0.059320641533484965,1.4713962771551675e-16,0.3921557839592336
147.2,0.38220755328799466,0.3869512228439932,0.000618830914642321,0.32582807830351784,0.0023178920614923887,0.0581864215643404,2.1148651777440576e-16,0.38633239192935087
147.4,0.37545698101971026,0.3802006505757088,-0.00019268403992456218,0.3205461712577883,0.0027754690098725446,0.057071694347972275,3.0303957604348826e-16,0.38039333461563335
147.6,0.36905744659420847,0.373801116150207,-0.0005594506243704611,0.31507863588039436,0.0033057301927672117,0.05597620070141546,4.3290117507031973e-16,0.37436056677457746
147.8,0.3627585159532679,0.36750218550926644,-0.0007542314421613572,0.30944018019647346,0.003916554498636489,0.054899682256317264,6.165381907575074e-16,0.3682564169514278
148.0,0.35584416032476535,0.3605878298807639,-0.0015155902193089155,0.30364555289611367,0.0046159856396104865,0.053841881564347764,8.754311390984768e-16,0.3621034201000728
148.2,0.34912654432597345,0.353870213881972,-0.0020539162387143706,0.29770948751377546,0.005412100408994198,0.052802542197915456,1.2393206913225552e-15,0.35592413012068636
148.4,0.34339254879994213,0.34813621835594066,-0.0016046946466616863,0.29164664879757907,0.006312855358710829,0.051781408846310654,1.749258376795726e-15,0.34974091300260235
148.6,0.337163475252574,0.34190714480857254,-0.0016685772345252925,0.28547158147374646,0.0073259131619607485,0.05077822740738821,2.4617364534050758e-15,0.34357572204309783
148.8,0.33181614901415246,0.336559818570151,-0.0008900388898391842,0.2791986615864205,0.008458450798664469,0.049792745074901765,3.454261392718769e-15,0.3374498574599902
149.0,0.32590322070001126,0.3306468902560098,-0.0007368233418537651,0.2728420505679954,0.009716952608254512,0.048824710421608845,4.832852461059909e-15,0.33138371359786356
149.2,0.32107969602188563,0.32582336557788416,0.00042684776842294436,0.26641565217001034,0.011106992161192274,0.047873873478251915,6.742099472351051e-15,0.3253965178094612
149.4,0.3152870675985752,0.32003073715457375,0.0005246712178815782,0.2599330723600929,0.012633007768058525,0.046939985808531356,9.378612103511478e-15,0.3195060659366922
149.6,0.31007872252988894,0.31482239208588747,0.001093932007873999,0.2534075822662716,0.014298077231550368,0.04602280058017856,1.3008950063775058e-14,0.31372846007801347
149.8,0.3045883174576571,0.3093319870136556,0.0012541320450492055,0.24685208422655971,0.01610369810979336,0.04512207263223535,1.7993455131147593e-14,0.3080778549686064
150.0,0.29967172115216334,0.30441539070816187,0.0018491709322388528,0.2402790809791777,0.01804958025807001,0.04423755853865051,2.481783302980162e-14,0.302566219775923
150.5,0.28845897967874734,0.29320264923474587,0.003751139817008531,0.22384811584808306,0.023507765786873507,0.042095627782726006,5.477601680379956e-14,0.28945150941773734
151.0,0.27574188883032513,0.28048555838632366,0.003151482485940882,0.20755788921029233,0.029726381998251172,0.04004980469172044,1.188371139155047e-13,0.2773340759003828
151.5,0.2634675983760416,0.26821126793204014,0.0020320894180529403,0.19156490097109483,0.03651783489897762,0.03809644264366125,2.5349763302788516e-13,0.2661791785139872
152.0,0.25186406986999743,0.25660773942599596,0.0007651658895455604,0.17600509661506478,0.04360550053418759,0.036231976386666226,5.318371554529332e-13,0.2558425735364504
152.5,0.2407129020485821,0.24545657160458065,-0.0006289803105231084,0.16099338962211301,0.0506392367572174,0.034452925534675646,1.0977082178007383e-12,0.24608555191510376
153.0,0.23077361184848433,0.2355172814044829,-0.0010858920801904703,0.14662377975754645,0.05722349630984958,0.03275589741504779,2.2295485293850717e-12,0.23660317348467336
153.5,0.22073647519319292,0.22548014474919148,-0.0015824307628496403,0.1329699840562581,0.06295500212990636,0.03113758932141925,4.457433199916765e-12,0.22706257551204112
154.0,0.21038282286897247,0.21512649242497103,-0.0020196409808120874,0.12008649115464046,0.0674648520197881,0.02959479022258042,8.774141888264733e-12,0.21714613340578312
154.5,0.1995544122691844,0.20429808182518297,-0.0022949987785824133,0.10800994799322991,0.070458750618074,0.028124381975452105,1.700937169697164e-11,0.20659308060376538
155.0,0.1877965229835572,0.19254019253955576,-0.0026930769468599125,0.09676079015036217,0.07174913921596808,0.02672334008760321,3.2482210076025786e-11,0.19523326948641567
155.5,0.17633780074659194,0.1810814703025905,-0.0019266160850439362,0.08634503242760792,0.07127431982678283,0.025388734072123515,6.112015177919676e-11,0.18300808638763444
156.0,0.1640709893075136,0.16881465886351216,-0.001161163164792589,0.0767561440250062,0.06910195045486209,0.024117727435089255,1.1334718737240272e-10,0.16997582202830475
156.5,0.1514767643925444,0.15622043394854296,-8.108703902637293e-05,0.06797694197477779,0.0654170014722372,0.02290757733333583,2.072185078859997e-10,0.15630152098756933
