wavelength,absorbance,absorbance_bk,residual_3gauss,Gauss_1,Gauss_2,Gauss_3,Gauss_4,Gauss_fit
117.0,0.6499909051304702,0.6537095200158394,-0.009645912704895454,1.0598155141638957e-06,4.066026985549672e-56,0.6633543729052207,1.9905802779430737e-113,0.6633554327207348
117.5,0.6461850870127821,0.6499037018981513,-0.007668235151126801,1.9249298700655105e-06,2.9889066456857333e-54,0.657570012119408,5.4201710569925194e-111,0.6575719370492781
118.0,0.6430228198438547,0.6467414347292239,-0.004238250213619232,3.431456599641168e-06,1.9673635414463477e-52,0.6509762534862434,1.3232876378154976e-108,0.6509796849428431
118.5,0.6351161112088147,0.6388347260941839,-0.00479186596462744,6.00618278251737e-06,1.1622500183623987e-50,0.6436205858760288,2.902957248860638e-106,0.6436265920588113
119.0,0.6324091233008121,0.6361277381861813,0.0005657635931458627,1.0326383694350735e-05,6.176548836465491e-49,0.6355516482093411,5.734399000914931e-104,0.6355619745930354
119.5,0.625362199887601,0.6290808147729702,0.002244503778221163,1.7446036452508033e-05,2.959300807890351e-47,0.6268188649582965,1.0220943556051762e-101,0.626836310994749
120.0,0.618550004625246,0.6222686195106152,0.004767543733584345,2.897405071296324e-05,1.2810682275087511e-45,0.6174721017263178,1.6471173260261647e-99,0.6175010757770308
120.5,0.6092532265053089,0.6129718413906781,0.005363178680527936,4.7320224693285924e-05,5.021302450700119e-44,0.6075613424854568,2.4046033309277376e-97,0.6076086627101501
121.0,0.6010612107135487,0.6047798255989179,0.007567409099931699,7.602684118568111e-05,1.7857521350681457e-42,0.5971363896578005,3.186275922526207e-95,0.5972124164989862
121.5,0.5890693016591689,0.5927879165445381,0.006421123445618626,0.00012020523771579631,5.773850842857759e-41,0.5862465878612036,3.83938160061876e-93,0.5863667930989195
122.0,0.5790544390311098,0.5827730539164789,0.007645385353762468,0.00018709676085230993,1.700623572075266e-39,0.5749405718018642,4.214788826976386e-91,0.5751276685627165
122.5,0.566222168286524,0.5699407831718932,0.00638796907272432,0.0002867756104217995,4.571808532143202e-38,0.5632660384887471,4.22287192637938e-89,0.5635528140991689
123.0,0.5512861245226353,0.5550047394080044,0.0033021892043917367,0.00043300653526556055,1.1238926625703108e-36,0.5512695436683471,3.8683087948914687e-87,0.5517025502036127
123.5,0.5382353866529903,0.5419540015383595,0.002313416847461003,0.0006442625577816146,2.5311603715116444e-35,0.5389963221331169,3.245354962353715e-85,0.5396405846908985
124.0,0.52445305810999,0.5281716729953592,0.0007366452085693087,0.00094489644400965,5.231850977607513e-34,0.5264901313427802,2.4978214087593375e-83,0.5274350277867899
124.5,0.5110949395403902,0.5148135544257594,-0.0003460075351817693,0.0013664443470858699,9.942533371225412e-33,0.5137931176138553,1.7665783687735556e-81,0.5151595619609411
125.0,0.49562614435306257,0.4993447592384318,-0.0035499659236671866,0.0019490211839478372,1.7401735818333196e-31,0.5009457039781512,1.1499405671249702e-79,0.502894725162099
125.5,0.48342198471630954,0.48714059960167877,-0.0035886446911455594,0.0027427456087530332,2.8097837883453168e-30,0.4879864986840713,6.900367695601631e-78,0.49072924429282433
126.0,0.4698019425800328,0.47352055746540206,-0.005240774981286889,0.0038091092328723084,4.1923027812010677e-29,0.47495222321381664,3.82289146971845e-76,0.47876133244668895
126.5,0.4576124271623247,0.46133104204769393,-0.005768798447984669,0.005222181882587901,5.789357800339274e-28,0.4618776586130907,1.9583426190207606e-74,0.4670998404956786
127.0,0.44669560987698714,0.4504142247623564,-0.005450908652817388,0.00706952453947954,7.411210962277172e-27,0.4487956088756942,9.289713437003509e-73,0.45586513341517376
127.5,0.43606749894131047,0.4397861138266797,-0.005403433125274526,0.009452666860444256,8.808396049741941e-26,0.43573688009150996,4.086571473861415e-71,0.44518954695195423
128.0,0.42727795454105816,0.4309965694264274,-0.004220704224771499,0.0124869996005614,9.73433753471994e-25,0.4227302740506375,1.669443814337553e-69,0.4352172736511989
128.5,0.4194953443397728,0.42321395922514204,-0.0028895722006616054,0.016300936428850606,1.0017433931208568e-23,0.40980259499695304,6.3422030486821745e-68,0.42610353142580365
129.0,0.41270571561080016,0.4164243304961694,-0.0015885542979748868,0.021034216555216888,9.613280869661962e-23,0.3969786682389274,2.2436289694268694e-66,0.4180128847941443
129.5,0.40776179393816125,0.4114804088235305,0.0003637890515238995,0.02683525041957601,8.615146362999178e-22,0.38428136935243057,7.400805353979736e-65,0.4111166197720066
130.0,0.40372145207072624,0.40744006695609547,0.0018509487967137694,0.0338574554119568,7.219830893857897e-21,0.3717316627474249,2.2792203238575922e-63,0.4055891181593817
130.5,0.40095668956016006,0.4046753044455293,0.00307207020903133,0.04225458582021724,5.66564211614127e-20,0.3593486484162807,6.561807794885768e-62,0.40160323423649796
131.0,0.3996193971358687,0.4033380120212379,0.004013268141972393,0.05217512814498318,4.1687004473060945e-19,0.3471496157342823,1.7681922929915178e-60,0.39932474387926553
131.5,0.4001517102371084,0.4038703251224776,0.004964316427036153,0.06375590545426998,2.8796583528603586e-18,0.3351501032411715,4.465107424793499e-59,0.39890600869544146
132.0,0.4017872106655728,0.40550582555094206,0.005026754788630239,0.07711510736728161,1.8698947144309295e-17,0.3233639633950302,1.0579067486856447e-57,0.4004790707623118
132.5,0.40554962181819176,0.409268236703561,0.005119775679007066,0.09234502966949118,1.1427852795686522e-16,0.3118034313550626,2.354408405400613e-56,0.40414846102455393
133.0,0.4110431702316061,0.4147617851169753,0.004777724791415805,0.10950486340866109,6.581233254403784e-16,0.3004791969168978,4.927544291788959e-55,0.4099840603255595
133.5,0.4178818854878989,0.42160050037326813,0.003586109635176471,0.1286139119462279,3.575672416909461e-15,0.2894004787918602,9.709094943347078e-54,0.41801439073809166
134.0,0.426903838538659,0.4306224534240282,0.002401721772242682,0.14964563116239665,1.8349220933533685e-14,0.27857510048937056,1.8030243252227852e-52,0.42822073165178554
134.5,0.4376448604999408,0.44136347538531,0.0008310286049327265,0.1725228796517222,8.903852815974473e-14,0.26800956712856605,3.159107782490478e-51,0.4405324467803773
135.0,0.4501958067899461,0.4539144216753153,-0.0009094518944469665,0.19711473099871293,4.0899621091911867e-13,0.25770914257064037,5.227850791573716e-50,0.4548238735697623
135.5,0.4645175616862421,0.4682361765716113,-0.0026768896506050854,0.22323513989354263,1.780376734498125e-12,0.24767792632689337,8.179454969292347e-49,0.4709130662222164
136.0,0.481089428515478,0.4848080434008472,-0.003754557229005362,0.2506436708640072,7.352181992770805e-12,0.2379189297584932,1.2111709927397143e-47,0.4885626006298526
136.5,0.49899530765651207,0.5027139225418813,-0.004768626255405417,0.279048397626217,2.8832545863414546e-11,0.22843415114223717,1.6990066037823426e-46,0.5074825487972867
137.0,0.5188379987913533,0.5225566136767225,-0.004779004582442625,0.3081109689198181,1.0748635943492983e-10,0.21922464923186066,2.2600243232564713e-45,0.5273356182591651
137.5,0.5406089278177674,0.5443275427031365,-0.0034167933297281072,0.33745372065509605,3.8129340927135105e-10,0.21029061499647522,2.853455232671411e-44,0.5477443360328647
138.0,0.5630338401875937,0.5667524550729629,-0.0015475896123445798,0.36666860213055597,1.2883200235475934e-09,0.20163144126643145,3.4227258147645826e-43,0.5683000446853075
138.2,0.5720778094116077,0.5757964242969769,-0.0006713200987633616,0.3782232862603567,2.0687260167057584e-09,0.1982444560666575,9.116525874168852e-43,0.5764677443957402
138.4,0.5810071358441047,0.5847257507294739,0.00016343496182702477,0.38966118686043694,3.2967956348620078e-09,0.19490112561041426,2.4088722056724227e-42,0.5845623157676468
138.6,0.5896113578549733,0.5933299727403425,0.0007743787392509027,0.40095427159898006,5.2145496101891895e-09,0.19160131718756188,6.314660649747553e-42,0.5925555940010916
138.8,0.5984056690721347,0.6021242839575038,0.0017048571766540288,0.4120745362664659,8.186588996202429e-09,0.18834488232779495,1.6423384823616858e-41,0.6004194267808498
139.0,0.6067484063372658,0.610467021222635,0.0023412206657499324,0.4229941303754591,1.2757807454523606e-08,0.18513165742361848,4.2381473758455845e-41,0.608125800556885
139.2,0.6145384704150495,0.6182570853004187,0.002610118519832949,0.43368548270255186,1.973609489503517e-08,0.18196146434193897,1.0852113176216116e-40,0.6156469667805857
139.4,0.6223609944657671,0.6260796093511363,0.003124042088622603,0.44412142592852033,3.030983514981703e-08,0.17883411102415817,2.7574103203881235e-40,0.6229555672625137
139.6,0.6294420954378532,0.6331607103232224,0.003135952492396177,0.454275319542774,4.6213400581201014e-08,0.1757493920746516,6.952821166750607e-40,0.6300247578308262
139.8,0.6364678952605175,0.6401865101458867,0.0033581806546075788,0.4641211701955016,6.995824577423428e-08,0.1727070893375317,1.739870278244961e-39,0.6368283294912791
140.0,0.6431823933337438,0.646901008219113,0.0035601818993552525,0.4736337487052901,1.0515282624789984e-07,0.1697069724616414,4.321079011174648e-39,0.6433408263197578
140.2,0.6484439227021008,0.65216253758747,0.0026248782307238816,0.48278870296137816,1.5694166854398138e-07,0.16674879945369936,1.0651487647963227e-38,0.6495376593567461
140.4,0.6541754649152673,0.6578940798006365,0.0024988639810994417,0.49156266599719595,2.32602767938569e-07,0.1638323172195732,2.6061179111121863e-38,0.6553952158195371
140.6,0.6587091964541424,0.6624278113395116,0.0015368483370706842,0.4999333585554163,3.4235337271280405e-07,0.16095726209365183,6.329456417233106e-38,0.6608909630024409
140.8,0.663046579689489,0.6667651945748582,0.0007616482775307798,0.507879685513622,5.004274077317922e-07,0.15812336035629773,1.525983974867434e-37,0.6660035462973274
141.0,0.666708378700363,0.6704269935857322,-0.00028588725046974073,0.5153818255932541,7.265035463787075e-07,0.1553303287394014,3.652306411068197e-37,0.670712880836202
141.2,0.6700699567983363,0.6737885716837054,-0.0012116646501988404,0.5224213138324142,1.0475814539391602e-06,0.1525778749200362,8.678414749195952e-37,0.6750002363339043
141.4,0.6728552900648673,0.6765739049502365,-0.002274409841411029,0.5289811163642861,1.5004250995008444e-06,0.14986569800226196,2.0473480278125928e-36,0.6788483147916475
141.6,0.6757784491755415,0.6794970640609107,-0.002744256749597107,0.5350456971071673,2.1347162315084965e-06,0.14719348898710888,4.795600131026493e-36,0.6822413208105078
141.8,0.6784037736623917,0.6821223885477609,-0.0030426358092906503,0.5406010760383454,3.017087908135208e-06,0.14456093123079797,1.1153624894107783e-35,0.6851650243570515
142.0,0.6806872456495613,0.6844058605349305,-0.003200955385030957,0.5456348787918015,4.236236892748362e-06,0.1419677008912672,2.575920666679753e-35,0.6876068159199614
142.2,0.6828076365611409,0.68652625144651,-0.0030295026488088572,0.550136377388265,5.909343981434127e-06,0.13941346736307234,5.907636090560646e-35,0.6895557540953189
142.4,0.6837403226116852,0.6874589374970543,-0.003543668240207243,0.5540965219747425,8.190061765577124e-06,0.13689789370075361,1.3454917722259886e-34,0.6910026057372616
142.6,0.6846002144947592,0.6883188293801283,-0.003621049527722242,0.5575079635187324,1.127835835987158e-05,0.13442063703075818,3.043375274996886e-34,0.6919398789078506
142.8,0.6852337108700441,0.6889523257554133,-0.0034095231970022732,0.560365067469217,1.543253118100295e-05,0.1319813489520176,6.8368813822060295e-34,0.6923618489524156
143.0,0.6860711052672768,0.689789720152646,-0.002474857958650989,0.5626639184616202,2.0983724377184062e-05,0.1295796759252995,1.5254901899043544e-33,0.6922645781112969
143.2,0.6858653853161569,0.6895840002015261,-0.002061928950543579,0.5644023162067201,2.8353293911921467e-05,0.12721525965143762,3.380883682705766e-33,0.6916459291520697
143.4,0.6854138688963464,0.6891324837817155,-0.0013730897823202026,0.5655797627634025,3.807336205455407e-05,0.1248877374385787,7.442878239461961e-33,0.6905055735640357
143.6,0.6841560948673492,0.6878747097527184,-0.0009702851418178504,0.5661974414517793,5.081088419107852e-05,0.12259674255856576,1.627652737421682e-32,0.6888449948945362
143.8,0.6827134466813036,0.6864320615666728,-0.00023542625322947597,0.5662581877160633,6.739551124433188e-05,0.12034190459259468,3.5360049682237585e-32,0.6866674878199023
144.0,0.6796967336414813,0.6834153485268505,-0.0005628050011351471,0.5657664522953807,8.885146630902741e-05,0.11812284976629593,7.631575757128813e-32,0.6839781535279856
144.2,0.6767963895397809,0.6805150044251501,-0.0002688875145886449,0.5647282571051059,0.0001164335602603349,0.11593920127437249,1.6363854980698495e-31,0.6807838919397388
144.4,0.6732955271506217,0.6770141420359909,-7.924917445878421e-05,0.5631511442710384,0.00015166734445280503,0.11379057959495846,3.4861552942605835e-31,0.6770933912104496
144.6,0.6694462632506339,0.6731648781360031,0.00024776331211751046,0.5610441187936529,0.00019639323638757775,0.1116766027938452,7.379331913880041e-31,0.6729171148238856
144.8,0.6653868668644968,0.669105481749866,0.0008381953267414533,0.5584175853495791,0.00025281425481108187,0.10959688681873438,1.5520864989070036e-30,0.6682672864231245
145.0,0.6607407857401529,0.6644594006255221,0.0013015283153011703,0.5552832797623533,0.0003235467641801836,0.10755104578368747,3.243863423969397e-30,0.6631578723102209
145.2,0.6554394220729817,0.6591580369583508,0.0015534756632692437,0.5516541956942537,0.0004116733569045728,0.10553869224392329,6.737146921168691e-30,0.6576045612950816
145.4,0.6496173813429152,0.6533359962282844,0.001711254941545337,0.5475445071257895,0.0005207966998063828,0.1035594374611431,1.3905134723719053e-29,0.6516247412867391
145.6,0.6433791376286607,0.6470977525140299,0.001860280809210968,0.5429694871991517,0.0006550928461189351,0.10161289165954825,2.852192741256652e-29,0.6452374717048189
145.8,0.6370222359757385,0.6407408508611077,0.002277400405245378,0.5379454240068142,0.0008193621763298857,0.09969866427271808,5.814409876470523e-29,0.6384634504558623
146.0,0.6294142863038134,0.6331329011891825,0.0018079273074453894,0.5324895339066847,0.0010190757935227325,0.0978163641815296,1.1780778595683146e-28,0.6313249738817371
146.2,0.6224719274782204,0.6261905423635896,0.002344654601683316,0.526619872940869,0.0012604148777499847,0.09596559994328734,2.3724783310288606e-28,0.6238458877619063
146.4,0.6144639002872573,0.6181825151726265,0.00213098801574374,0.5203552469265293,0.0015503002181167685,0.09414598001223667,4.749070491284674e-28,0.6160515271568827
146.6,0.6060092260124661,0.6097278408978353,0.0017591982599738376,0.5137151207747903,0.0018964089114216316,0.09235711295164953,9.449550063974994e-28,0.6079686426378614
146.8,0.5977910166445772,0.6015096315299464,0.0018843212506556295,0.5067195275772576,0.0023071750643935325,0.09059860763763969,1.869079228700738e-27,0.5996253102792908
147.0,0.5885012090124017,0.5922198238977708,0.0011690011777353293,0.49938897798015225,0.002791771284978012,0.08887007345490523,3.675159019782099e-27,0.5910508227200355
147.2,0.5791621568054706,0.5828807716908397,0.0006052130450914239,0.49174437034318413,0.0033600678180054325,0.08717112048455879,7.184127698936393e-27,0.5822755586457483
147.4,0.5692037566979837,0.5729223715833529,-0.0004084566465409889,0.4838069021548988,0.004022566390761936,0.0855013596842332,1.396172057049416e-26,0.5733308282298939
147.6,0.5596463164920802,0.5633649313774494,-0.0008837610310507005,0.475597983148313,0.004790306199551099,0.08386040306063601,2.697666154888752e-26,0.5642486924085001
147.8,0.5499221752509869,0.553640790136356,-0.0014209642281635126,0.46713915053074645,0.005674739999048833,0.08224786383472432,5.182497106909198e-26,0.5550617543645195
148.0,0.5399993677515551,0.5437179826369243,-0.0020849396282520694,0.45845198671026105,0.006687578955230016,0.08066335659968522,9.899394834144292e-26,0.5458029222651763
148.2,0.5299869792599483,0.5337055941453175,-0.002799548979867117,0.44955803986811504,0.007840605785184841,0.07910649747188467,1.8802427231534034e-25,0.5365051431251846
148.4,0.5209012637471927,0.5246198786325619,-0.0025812300150213074,0.44047874769287315,0.009145456719741362,0.07757690423496864,3.551172179171051e-25,0.5272011086475832
148.6,0.511927938933314,0.5156465538186832,-0.0022763811805893708,0.43123536455720407,0.010613373964784697,0.07607419647728376,6.669584947447669e-25,0.5179229349992726
148.8,0.5036517261000188,0.507370340985388,-0.0013314786934083278,0.42184889238354,0.012254931572472127,0.07459799572278422,1.245695078800157e-24,0.5087018196787964
149.0,0.49524919744519114,0.49896781233056037,-0.0005998675583753221,0.41234001540996834,0.014079738923361796,0.07314792555560559,2.3138064185362166e-24,0.4995676798889357
149.2,0.4875800517097161,0.4912986665950853,0.0007498885073610184,0.40272903903296414,0.01609612731629962,0.07172361173846055,4.2742603567415325e-24,0.4905487780877243
149.4,0.4792728338145625,0.4829914486999317,0.001320107095287959,0.3930358328695966,0.018310826410015087,0.07032468232503207,7.852895624206897e-24,0.48167134160464375
149.6,0.4713486603368888,0.47506727522225806,0.002108090907060989,0.38327977814844333,0.02072863840022923,0.06895076776652455,1.434992658601744e-23,0.47295918431519707
149.8,0.4634213059943045,0.4671399208796737,0.002706581572319511,0.3734797195061204,0.02335211878870051,0.06760150101253327,2.608173717413057e-23,0.4644333393073542
150.0,0.45601677349096886,0.4597353883763381,0.003623676186997271,0.36365392123525975,0.026181273347684404,0.06627651760639669,4.7152659088299335e-23,0.4561117121893408
150.5,0.4370393802490928,0.440757995134462,0.004471196803840061,0.33909098963792195,0.03412787725674415,0.06306793143595586,2.0248637336808217e-22,0.43628679833062195
151.0,0.4180701608947506,0.4217887757801198,0.0038501787138549015,0.3147328843983854,0.043202425388375265,0.06000328727950424,8.416740514222938e-22,0.4179385970662649
151.5,0.3994918223585317,0.40321043724390093,0.0021833831528906833,0.290808741004173,0.053141187933292956,0.057077125153544316,3.388354204956412e-21,0.40102705409101025
152.0,0.3820696305500259,0.38578824543539514,0.00043581799772607344,0.26751798576009744,0.06355033488829319,0.05428410678927844,1.3217952338595665e-20,0.38535242743766907
152.5,0.36566956011987656,0.3693881750052458,-0.0011873755535952157,0.24502964451166528,0.07392688516967688,0.05161902087749885,4.999188676005092e-20,0.370575550558841
153.0,0.3510146531345442,0.35473326801991345,-0.0015239844562915383,0.22348249539433393,0.08369796973940026,0.04907678734247078,1.8340875407548466e-19,0.356257252476205
153.5,0.3363056033174015,0.34002421820277073,-0.001888522932275205,0.20298594923376478,0.09227433117650989,0.04665246072477124,6.530506255559592e-19,0.34191274113504594
154.0,0.32095570151330566,0.3246743163986749,-0.0023993702968067576,0.1836215326458454,0.0991109213005577,0.04434123274907853,2.2578594518359852e-18,0.32707368669548165
154.5,0.30482037699829206,0.3085389918836613,-0.002809945055433971,0.1654448465301202,0.10376565626005387,0.04213843414892124,7.583736883382355e-18,0.31134893693909527
155.0,0.28730086516217984,0.2910194800475491,-0.0034552563376207823,0.14848787561035678,0.10594732495837744,0.04003953581643562,2.4757970820146965e-17,0.29447473638516986
155.5,0.2698992733520174,0.27361788823738664,-0.0027291717547077154,0.13276153194236076,0.10554537870848324,0.038040149341250315,7.859548551030504e-17,0.27634705999209436
156.0,0.25164690091407893,0.25536551579944816,-0.00166631048857796,0.1182583258427986,0.10263747344646593,0.03613602699876135,2.4273506237676073e-16,0.2570318262880261
156.5,0.23261591876475515,0.23633453365012438,-0.00041807404712349006,0.10495507048434796,0.09747447596861594,0.034323061244283255,7.296552662077817e-16,0.23675260769724787
157.0,0.21358415333025713,0.21730276821562636,0.0014436067403972297,0.09281554051944921,0.09044633718988672,0.032597283765891036,2.1357360641172025e-15,0.21585916147522913
