wavelength,absorbance,absorbance_bk,residual_3gauss,Gauss_1,Gauss_2,Gauss_3,Gauss_4,Gauss_fit
117.0,0.4326847049920765,0.43742837454807504,-0.005606375142000408,4.856357415804847e-07,1.332044223651574e-56,0.4430342640543339,1.2558085759917591e-62,0.44303474969007545
117.5,0.42874994554591733,0.43349361510191586,-0.005673255219739715,8.957175027331553e-07,1.0087052623406144e-54,0.43916597460415285,2.4618639067510833e-61,0.4391668703216556
118.0,0.42494405723545114,0.4296877267914497,-0.00507115168270178,1.62074092831197e-06,6.833947111191855e-53,0.43475725773322316,4.557242261479007e-60,0.43475887847415146
118.5,0.4221163547151719,0.4268600242711704,-0.0029826994485016023,2.8781935414636912e-06,4.1520354744459804e-51,0.4298398455261306,7.974964058252298e-59,0.429842723719672
119.0,0.41832627163648795,0.4230699411924865,-0.001381313634648218,5.018427415926179e-06,2.2674047700315383e-49,0.4244462363997188,1.3207595665721515e-57,0.4244512548271347
119.5,0.4141673331299626,0.41891100268596115,0.00029295633310022495,8.594680626513521e-06,1.1154464227306707e-47,0.4186094516722344,2.0723169364820887e-56,0.41861804635286093
120.0,0.4110717247822083,0.41581539433820686,0.0034381252149692787,1.4463565449337232e-05,4.954164396488528e-46,0.41236280555778826,3.083786641399508e-55,0.4123772691232376
120.5,0.4050605355892355,0.409804205145234,0.004040589533377104,2.3925972717203153e-05,1.9907761109591448e-44,0.4057396896391397,4.3566856253834765e-54,0.4057636156118569
121.0,0.3991628445149141,0.4039065140709126,0.0050942213868829245,3.892007439406273e-05,7.252896457101335e-43,0.39877337260963563,5.8493799005058015e-53,0.3988122926840297
121.5,0.3924523103050794,0.3971959798610779,0.0056368845526234,6.22794779395013e-05,2.400619726630372e-41,0.391496815830515,7.470906265128529e-52,0.3915590953084545
122.0,0.384172425018058,0.3889160945740565,0.004875519307255827,9.807024254467392e-05,7.233083555369109e-40,0.38394250502425603,9.085842343723949e-51,0.3840405752668007
122.5,0.3767871116968125,0.38153078125281104,0.005236463051453866,0.00015201998203579457,1.9877296988439955e-38,0.3761422982193214,1.0531611950645379e-49,0.37629431820135717
123.0,0.36615037080318286,0.3708940403591814,0.002534700299925585,0.0002320501822194814,4.991729821747156e-37,0.3681272898770363,1.1645616130424784e-48,0.3683593400592558
123.5,0.3577807858035519,0.3625244553595504,0.0022478457041306688,0.0003489186877377761,1.1476568123681452e-35,0.35992769096768196,1.2295875482993608e-47,0.36027660965541974
124.0,0.34848467400955746,0.353228343565556,0.0011386462706807765,0.0005169726749034978,2.4200770897014714e-34,0.35157272461997174,1.2407051728291916e-46,0.3520896972948752
124.5,0.3390525457714043,0.34379621532740284,-4.932460605849842e-05,0.0007550030881016686,4.688928892623312e-33,0.3430905368453597,1.1974689936064148e-45,0.34384553993346134
125.0,0.32891888815469533,0.33366255771069386,-0.0019327435124812942,0.0010871794876748694,8.361786076955477e-32,0.33450812173550026,1.1064014316900498e-44,0.33559530122317516
125.5,0.320043370184129,0.3247870397401275,-0.0026082505786833576,0.0015440298722998334,1.3748082290011442e-30,0.325851260446511,9.794272873058818e-44,0.32739529031881087
126.0,0.31183408028558585,0.3165777498415844,-0.0027301373967205667,0.002163414021792834,2.0874833877301236e-29,0.3171444732165121,8.313677397210144e-43,0.31930788723830494
126.5,0.30318233091673025,0.3079260004727288,-0.0034764055323807663,0.0029914223931770804,2.931877532384581e-28,0.3084109836119325,6.77202479642055e-42,0.31140240600510954
127.0,0.29561300168251287,0.3003566712385114,-0.0033991400421252704,0.004083117118666643,3.815038015086292e-27,0.29967269416197,5.297656946702876e-41,0.30375581128063667
127.5,0.288155668958596,0.29289933851459454,-0.003553853033137544,0.005503019029676133,4.606331734522355e-26,0.29095017251805594,3.983064689145214e-40,0.2964531915477321
128.0,0.2818908008690558,0.28663447042505436,-0.0029534136981763104,0.007325236858474583,5.16860069664246e-25,0.2822626472647561,2.880317840037505e-39,0.28958788412323067
128.5,0.2764775894887164,0.28122125904471496,-0.0020398872688285885,0.009633133804565722,5.3975387671695716e-24,0.27362801250897784,2.0047832947606352e-38,0.28326114631354354
129.0,0.2717055176930317,0.2764491872490302,-0.0011320873148647492,0.012518434179740185,5.2535514313359465e-23,0.2650628403841548,1.3440213829769998e-37,0.277581274563895
129.5,0.2679842841837691,0.2727279537397676,6.586308946204822e-05,0.016079690026181464,4.772657001134894e-22,0.2565824006241241,8.684761228336572e-37,0.27266209065030556
130.0,0.2647511198292226,0.26949478938522115,0.0008740481522104826,0.020420054846700574,4.052467924875555e-21,0.2482006863863101,5.412743248339403e-36,0.26862074123301066
130.5,0.2626564579275968,0.2674001274835953,0.0018253335732584808,0.025644348375834788,3.220475800299322e-20,0.23993044553450207,3.255918192469028e-35,0.26557479391033684
131.0,0.261445681357361,0.26618935091335955,0.002550693176068375,0.03185544111043256,2.398489004212202e-19,0.2317832166268586,1.891510141791012e-34,0.26363865773729117
131.5,0.2614249165784546,0.26616858613445316,0.003249179691446058,0.03915003754925804,1.6762404039718328e-18,0.22376936889374907,1.0619393348426973e-33,0.2629194064430071
132.0,0.2620552076179556,0.2667988771739541,0.0032867423235209414,0.04761398931863694,1.100695539766529e-17,0.2158981455317962,5.7652418407642246e-33,0.2635121348504332
132.5,0.2640162789324515,0.26875994848845003,0.0032649193036606294,0.05731731950067699,6.799390579926522e-17,0.2081777096841123,3.0284991674528895e-32,0.2654950291847894
133.0,0.2673276218677712,0.27207129142376973,0.0031469157524611213,0.06830918314976736,3.956148616298665e-16,0.20061519252154084,1.5402432663443344e-31,0.2689243756713086
133.5,0.2717099102942952,0.27645357985029373,0.0026238150557067463,0.08061302190954038,2.170659256472527e-15,0.19321674288504445,7.58852856569593e-31,0.273829764794587
134.0,0.27720214245698915,0.2819458120129877,0.0017360449244090415,0.09422218909393745,1.1244307980779983e-14,0.18598757799462995,3.623943768364346e-30,0.28020976708857864
134.5,0.28428211022984845,0.289025779785847,0.0009974222267500887,0.10909632278412638,5.505422112726393e-14,0.17893203477491545,1.6784370866730224e-29,0.2880283575590969
135.0,0.2922042459745139,0.2969479155305124,-0.00026443276526649795,0.1251587269043744,2.5506425236052624e-13,0.17205362139114944,7.543407185955382e-29,0.2972123482957789
135.5,0.30169892813425325,0.3064425976902518,-0.001207454795392915,0.14229498385262332,1.1193957459223651e-12,0.16535506863190197,3.2915704649160494e-28,0.3076500524856447
136.0,0.3123757932677367,0.3171194628237352,-0.0020718866167212524,0.1603529686203916,4.658614450663296e-12,0.15883838081540624,1.3952157804440303e-27,0.31919134944045646
136.5,0.3243620595891548,0.32910572914515335,-0.0025435232830849364,0.17914436647437698,1.8404462654598224e-11,0.1525048859354568,5.747871731954738e-27,0.3316492524282383
137.0,0.3374319505435143,0.34217562009951286,-0.002627383251959825,0.19844771848269807,6.909194411430061e-11,0.14635528479968266,2.30261076354624e-26,0.3448030033514727
137.5,0.35189735814721945,0.356641027703218,-0.0017616081466174105,0.21801293665535443,2.467203095047796e-10,0.14038969894776065,8.974239214105744e-26,0.3584026358498354
138.0,0.3670734462142752,0.3718171157702737,-0.0003577511412189427,0.23756714890298064,8.388451953244675e-10,0.13460771716966682,3.40447339785999e-25,0.37217486691149265
138.2,0.3728351990115864,0.37757886856758494,-8.872203914050969e-05,0.2453214416418112,1.3502127515929061e-09,0.1323461476147015,5.760159346839396e-25,0.37766759060672545
138.4,0.37837556326943256,0.3831192328254311,-3.4335268997987e-06,0.2530089263623032,2.156789123248023e-09,0.13011373783323854,9.704862323903794e-25,0.3831226663523309
138.6,0.3837857513319771,0.38852942088797565,8.48469116837558e-06,0.2606105339092544,3.419198835654358e-09,0.12791039886835404,1.6282742862208184e-24,0.3885209361968073
138.8,0.39000371478057466,0.3947473843365732,0.0009041893568488835,0.26810715835462673,5.379948284472129e-09,0.12573603124514934,2.720582673182115e-24,0.3938431949797243
139.0,0.39597251200310263,0.40071618155910116,0.0016459037608401728,0.2754797440092415,8.402230277026945e-09,0.12359052538678916,4.5269452105185324e-24,0.399070277798261
139.2,0.4008304828170106,0.40557415237300914,0.001391004532659279,0.28270937279177566,1.3025645155888024e-08,0.12147376202292903,7.501880877372653e-24,0.40418314784034987
139.4,0.40654634382559496,0.4112900133815935,0.002127029390468549,0.2897773513551459,2.0045520027200414e-08,0.11938561259045902,1.238138621231362e-23,0.40916298399112494
139.6,0.41120129840543856,0.4159449679614371,0.001953700336294051,0.29666529737381725,3.062484225256095e-08,0.11732593962648355,2.0352371716056377e-23,0.41399126762514304
139.8,0.41586241259808254,0.4206060821540811,0.0019562141453578485,0.3033552244044015,4.64508495512355e-08,0.11529459715347216,3.332113582006254e-23,0.4186498680087232
140.0,0.4208514373443356,0.42559510690033414,0.0024739811456164773,0.30982962474597875,6.995219451837718e-08,0.11329143105654436,5.433702443884462e-23,0.42312112575471766
140.2,0.4245302941764601,0.42927396373245863,0.0018860299362396526,0.31607154974587914,1.0459750285482851e-07,0.11131627945283692,8.825826056841662e-23,0.427387933796219
140.4,0.42834073190317706,0.4330844014591756,0.0016505860833854746,0.32206468702058877,1.5530226391794803e-07,0.1093689730529374,1.4279414718192096e-22,0.4314338153757901
140.6,0.4316241815043729,0.4363678510603714,0.001124852477478011,0.32779343408999906,2.289785291311549e-07,0.10744933551436518,2.301298535187192e-22,0.4352429985828934
140.8,0.4340666315116307,0.43881030106762925,9.814053634427111e-06,0.33324296795586145,3.3527104530292174e-07,0.10555718378708807,3.694493532897046e-22,0.4388004870139948
141.0,0.4366496197193649,0.4413932892753634,-0.0006988369017352225,0.3383993101916154,4.875343948249444e-07,0.10369232845108846,5.908374931276909e-22,0.44209212617709864
141.2,0.43912200845418053,0.44386567801017907,-0.001238987304873762,0.34324938715048076,7.04118593250103e-07,0.1018545740459788,9.412913487568987e-22,0.4451046653150528
141.4,0.4410564763895408,0.44580014594553935,-0.0020256684337527364,0.34778108494111076,1.0100454824297772e-06,0.10004371939269889,1.4939448909505767e-21,0.4478258143792921
141.6,0.44349471550362907,0.4482383850596276,-0.002005910887806772,0.351983298864985,1.4391751333711728e-06,0.09825955790731605,2.36216968489916e-21,0.45024429594743437
141.8,0.44506774605018146,0.44981141560618,-0.0025384763373422214,0.3558459770563729,2.0369801829627927e-06,0.09650187790696636,3.721045954990022e-21,0.4523498919435222
142.0,0.44668010722861046,0.451423776784609,-0.0027097083033407188,0.35936015811372357,2.8640662435552435e-06,0.09477046290798259,5.8399312863640216e-21,0.4541334850879497
142.2,0.4481245603221948,0.4528682298781933,-0.002718865195988185,0.36251800256022937,4.000597695976402e-06,0.09306509191625616,9.131675020158142e-21,0.4555870950741815
142.4,0.4495092470475343,0.45425291660353284,-0.0024509929363675798,0.36531281802051346,5.551809493660305e-06,0.09138553970989326,1.422670482935289e-20,0.4567039095399004
142.6,0.45018763951169294,0.45493130906769147,-0.0025470009019811224,0.3677390780494936,7.65480595300023e-06,0.08973157711422602,2.2084136751429695e-20,0.4574783099696726
142.8,0.45066676817967827,0.4554104377356768,-0.002495454996940649,0.3697924345979418,1.0486865430646796e-05,0.088102971269245,3.4157788928854344e-20,0.45790589273261745
143.0,0.45140973630414394,0.45615340586014247,-0.001830079659541406,0.3714697241466682,1.4275483483158148e-05,0.08649948588953256,5.264330982396654e-20,0.4579834855196839
143.2,0.45154970401378863,0.45629337356978716,-0.0014157859285927055,0.3727689675872114,1.931039440117099e-05,0.08492088151676731,8.084469900022734e-20,0.45770915949837987
143.4,0.4514424576744772,0.45618612723047575,-0.0008961103147785976,0.37368936397095454,2.595780940816646e-05,0.08336691576489165,1.2371591277969845e-19,0.45708223754525434
143.6,0.4506549465679502,0.4553986161239487,-0.0007046828210399703,0.37423127829043146,3.467709653383413e-05,0.0818373435580234,1.8865828281871908e-19,0.4561032989449887
143.8,0.44979885502715466,0.4545425245831532,-0.00023165637314126464,0.37439622349584406,4.604009924843117e-05,0.08033191736120199,2.8669033391895976e-19,0.45477418095629446
144.0,0.4481787115235428,0.45292238107954136,-0.00017559655612375824,0.3741868369862354,6.0753245358399355e-05,0.07885038740407131,4.341577556436367e-19,0.4530979776356651
144.2,0.44612314148136384,0.45086681103736237,-0.00021222523985053865,0.3736068518481077,7.968253151803962e-05,0.07739250189758717,6.552240272980498e-19,0.4510790362772129
144.4,0.4439281027619316,0.44867177231793015,-5.117944969368349e-05,0.3726610631443161,0.00010388137944872845,0.07595800724385904,9.854852358554764e-19,0.44872295176762383
144.6,0.4416015603702264,0.44634522992622494,0.00030867085872238187,0.37135528958266756,0.0001346212456110946,0.0745466482392239,1.4771980444076234e-18,0.44603655906750256
144.8,0.4390566512945452,0.4438003208505437,0.0007723969376469686,0.36969633091668114,0.0001734247255560575,0.07315816827065957,2.2068142476538434e-18,0.44302792391289675
145.0,0.4362487434627649,0.4409924130187634,0.0012860813351937006,0.36769192145035,0.00022210072756935183,0.07179230950565035,3.2858018386046e-18,0.4397063316835697
145.2,0.4326918479617584,0.43743551751775694,0.001353243308647445,0.36535068003443316,0.00028278109906998606,0.07044881307560638,4.876132454363926e-18,0.4360822742091095
145.4,0.4291195895215528,0.43386325907755136,0.0016958249939525993,0.36268205695383254,0.00035795787680931493,0.06912741925295689,7.212371403135354e-18,0.43216743408359876
145.6,0.4249413171160416,0.42968498667204014,0.0017103208325476293,0.3596962781139787,0.00045052010348644266,0.06782786762202733,1.0633077600453263e-17,0.4279746658394925
145.8,0.4204310313514816,0.4251747009074801,0.0016567278084311798,0.3564042869389479,0.0005637889162878416,0.0665498972438132,1.5625285805982187e-17,0.4235179730990489
146.0,0.4156159977322492,0.42035966728824775,0.0015471867015250385,0.3528176843953977,0.0007015493765544002,0.06529324681477063,2.2887309418911697e-17,0.4188124805867227
146.2,0.4111531524344984,0.41589682199049693,0.002022422330539342,0.3489486675544102,0.000868077285809631,0.06405765481973771,3.3417112526836245e-17,0.4138743996599576
146.4,0.4055964443023672,0.4103401138583657,0.0016191280459821322,0.3448099670981935,0.0010681590350885624,0.06284285967910146,4.8636247615065024e-17,0.4087209858123836
146.6,0.39996955590761424,0.40471322546361277,0.0013427390261340766,0.34041478417050725,0.0013071023766346968,0.06164859989033672,7.056309769494695e-17,0.4033704864374787
146.8,0.39473614897023673,0.39947981852623526,0.0016377414983083094,0.33577672695873095,0.0015907359051732285,0.06047461416402269,1.0205424107846145e-16,0.39784207702792695
147.0,0.3879544846270721,0.39269815418307064,0.0005423702406551212,0.33090974738214785,0.0019253950057990415,0.059320641554468485,1.4713962770650917e-16,0.3921557839424155
147.2,0.38220755328799466,0.3869512228439932,0.0006188309317678997,0.3258280782451986,0.0023178920819714333,0.05818642158505506,2.1148651776145897e-16,0.3863323919122253
147.4,0.37545698101971026,0.3802006505757088,-0.0001926840227763349,0.32054617119672946,0.002775469033335914,0.05707169436841946,3.0303957602493677e-16,0.3803933345984851
147.6,0.36905744659420847,0.373801116150207,-0.0005594506074972916,0.3150786358166203,0.003305730219486745,0.05597620072159674,4.3290117504381834e-16,0.3743605667577043
147.8,0.3627585159532679,0.36750218550926644,-0.0007542314258687788,0.30944018013002034,0.003916554528880058,0.05489968227623422,6.165381907197642e-16,0.3682564169351352
148.0,0.35584416032476535,0.3605878298807639,-0.001515590203904127,0.3036455528270286,0.004615985673636449,0.05384188158400205,8.754311390448847e-16,0.362103420084668
148.2,0.34912654432597345,0.353870213881972,-0.002053916224499963,0.29770948744211656,0.00541210044704538,0.05280254221730878,1.2393206912466863e-15,0.35592413010647195
148.4,0.34339254879994213,0.34813621835594066,-0.0016046946339287604,0.2916466487234147,0.006312855401008163,0.05178140886544475,1.7492583766886396e-15,0.3497409129898694
148.6,0.337163475252574,0.34190714480857254,-0.0016685772235462415,0.2854715813971547,0.007325913208696751,0.05077822742626492,2.461736453254373e-15,0.3435757220321188
148.8,0.33181614901415246,0.336559818570151,-0.0008900388808607551,0.2791986615074887,0.008458450849996704,0.04979274509352291,3.4542613925073056e-15,0.33744985745101175
149.0,0.32590322070001126,0.3306468902560098,-0.0007368233350898423,0.2728420504868193,0.009716952664299254,0.04882471043997629,4.832852460764051e-15,0.33138371359109964
149.2,0.32107969602188563,0.32582336557788416,0.0004268477727973341,0.2664156520866938,0.01110699222201864,0.047873873496367604,6.742099471938313e-15,0.3253965178050868
149.4,0.3152870675985752,0.32003073715457375,0.0005246712197368164,0.25993307227474705,0.012633007833683221,0.046939985826397294,9.378612102937337e-15,0.31950606593483694
149.6,0.31007872252988894,0.31482239208588747,0.0010939320071302605,0.2534075821790142,0.01429807730193334,0.0460228005977967,1.3008950062978677e-14,0.3137284600787572
149.8,0.3045883174576571,0.3093319870136556,0.001254132041681122,0.24685208413751428,0.016103698184834512,0.045122072649607735,1.7993455130046068e-14,0.3080778549719745
150.0,0.29967172115216334,0.30441539070816187,0.0018491709262775657,0.24027908088847305,0.01804958033760722,0.04423755855577918,2.481783302828232e-14,0.3025662197818843
150.5,0.28845897967874734,0.29320264923474587,0.0037511398050810163,0.22384811575382152,0.023507765876533884,0.042095627799254666,5.4776016800446286e-14,0.28945150942966485
151.0,0.27574188883032513,0.28048555838632366,0.003151482469469946,0.20755788911335554,0.029726382095716736,0.0400498047076626,1.1883711390822973e-13,0.2773340759168537
151.5,0.2634675983760416,0.26821126793204014,0.002032089399156667,0.1915649008723882,0.0365178350012111,0.038096442659030665,2.5349763301236653e-13,0.2661791785328835
152.0,0.25186406986999743,0.25660773942599596,0.0007651658707276132,0.17600509651549218,0.043605500637767344,0.036231976401476955,5.318371554203752e-13,0.25584257355526835
152.5,0.2407129020485821,0.24545657160458065,-0.0006289803267724159,0.1609933895225539,0.050639236858759526,0.03445292554894195,1.0977082177335388e-12,0.24608555193135306
153.0,0.23077361184848433,0.2355172814044829,-0.001085892091809093,0.14662377965883605,0.05722349640644232,0.03275589742878406,2.2295485292485833e-12,0.23660317349629198
153.5,0.22073647519319292,0.22548014474919148,-0.0015824307685509131,0.13296998395917092,0.06295500221947409,0.03113758933463995,4.457433199643889e-12,0.2270625755177424
154.0,0.21038282286897247,0.21512649242497103,-0.002019640980294446,0.12008649105987723,0.0674648521013141,0.02959479023530002,8.774141887727597e-12,0.21714613340526548
154.5,0.1995544122691844,0.20429808182518297,-0.002294998772560286,0.1080099479014083,0.07045875069164047,0.02812438198768513,1.7009371695930362e-11,0.20659308059774326
155.0,0.1877965229835572,0.19254019253955576,-0.00269307693691187,0.0967607900620106,0.07174913928261072,0.026723340099364088,3.248221007403729e-11,0.19523326947646763
155.5,0.17633780074659194,0.1810814703025905,-0.0019266160733156512,0.08634503234316293,0.0712743198881965,0.02538873408342658,6.11201517754551e-11,0.18300808637590615
156.0,0.1640709893075136,0.16881465886351216,-0.0011611631536187217,0.07675614394481232,0.06910195051302259,0.024117727445948752,1.1334718736546383e-10,0.16997582201713088
156.5,0.1514767643925444,0.15622043394854296,-8.108703054796051e-05,0.06797694189909012,0.06541700152901646,0.02290757734376584,2.072185078733142e-10,0.15630152097909092
