wavelength,absorbance,absorbance_bk,residual_3gauss,Gauss_1,Gauss_2,Gauss_3,Gauss_4,Gauss_fit
117.0,1.0882537531155871,1.0899892009659293,-0.015720665188601046,2.2511089784800374e-06,1.7692456203810137e-58,1.1057076150455518,8.075197310794012e-145,1.1057098661545304
117.5,1.0874041798886251,1.0891396277389673,-0.00635094375498535,4.043648695842903e-06,1.605463577505586e-56,1.0954865278452568,1.0165760892992874e-141,1.0954905714939527
118.0,1.076632970061813,1.078368417912155,-0.005571797058262273,7.131427668130999e-06,1.2972733253022283e-54,1.0839330835427492,1.1145962530391635e-138,1.0839402149704174
118.5,1.067887000487727,1.0696224483380692,-0.0015181143211955295,1.2353214485325016e-05,9.35717759310079e-53,1.0711282094447794,1.067262074539868e-135,1.0711405626592647
119.0,1.0525325203770513,1.0542679682273934,-0.0029076067181805776,2.102587283207271e-05,6.039197816542506e-51,1.0571545490727419,8.948664450321668e-133,1.057175574945574
119.5,1.0441650781041043,1.0459005259544465,0.0037694928209608403,3.517747851310812e-05,3.4958190978185836e-49,1.0420958556549726,6.587346980545797e-130,1.0421310331334857
120.0,1.0297851900738957,1.0315206379242379,0.005426344332149169,5.787275231734445e-05,1.8190498007017612e-47,1.0260364208397714,4.268093476916998e-127,1.0260942935920887
120.5,1.0162479817394892,1.0179834295898313,0.008829231428628459,9.365708407196367e-05,8.52773608087347e-46,1.009060541077131,2.440109489318147e-124,1.0091541981612029
121.0,0.9959876335662547,0.9977230814165969,0.006321909495680789,0.00014914845971765253,3.609620789936973e-44,0.9912520234611985,1.2339380449901536e-121,0.9914011719209161
121.5,0.9796473375522762,0.9813827854026184,0.008455245108447529,0.00023380807799186468,1.3824561699957576e-42,0.9726937322161789,5.532469332613126e-119,0.9729275402941708
122.0,0.9547386825711773,0.9564741304215195,0.0026460345341855485,0.00036091943818282636,4.800706503308554e-41,0.9534671764491511,2.2044294721293112e-116,0.953828095887334
122.5,0.9403888525121389,0.9421243003624811,0.007923359890070758,0.0005488011858494605,1.5146219703550385e-39,0.9336521392865609,7.823703548749244e-114,0.9342009404724103
123.0,0.9163753519869043,0.9181107998372465,0.003962181758273453,0.0008222700211087737,4.3502058887983413e-38,0.9133263480578643,2.4787522057729718e-111,0.9141486180789731
123.5,0.8924369419467011,0.8941723897970433,0.0003928493487013185,0.0012143556580989636,1.1396286121960899e-36,0.892565184790243,7.025910832865588e-109,0.893779540448342
124.0,0.8703138619500448,0.872049309800387,-0.001160375782754075,0.0017682496515178613,2.728269244338486e-35,0.8714414359316232,1.785436498595821e-106,0.873209685583141
124.5,0.8483685565579598,0.850104004408302,-0.002460519375661274,0.0025394438602121994,5.979779944942387e-34,0.8500250799237511,4.0762578524625886e-104,0.8525645237839633
125.0,0.8240589368369026,0.8257943846872448,-0.006186709374747301,0.0035979830609501485,1.2021062516807764e-32,0.8283831110010419,8.377951175773773e-102,0.831981094061992
125.5,0.8037356296295864,0.8054710774799286,-0.006139041141717372,0.0050307212303873005,2.2203839796349544e-31,0.8065793973912587,1.5532350045341737e-99,0.811610118621646
126.0,0.7820444253435099,0.7837798731938521,-0.007838133366657396,0.006943434622336485,3.774779194020046e-30,0.784674571938173,2.602586397600839e-97,0.7916180065605095
126.5,0.7634326216412743,0.7651680694916165,-0.007020493711874298,0.009462610152703787,5.916530729827927e-29,0.762725953050787,3.948834846834569e-95,0.7721885632034908
127.0,0.7443705979410944,0.7461060457914366,-0.007418146620944421,0.0127366986073829,8.563914032324745e-28,0.7407874938049981,5.435480856470612e-93,0.753524192412381
127.5,0.7283497857279874,0.7300852335783296,-0.005761126435326336,0.016936603035255342,1.1465912436729988e-26,0.7189097569784005,6.799925034771158e-91,0.7358463600136559
128.0,0.7130903877177397,0.7148258355680819,-0.004569245807611755,0.022255167592228016,1.4222046168333182e-25,0.6971399137834656,7.745374949449654e-89,0.7193950813756936
128.5,0.7012143485900206,0.7029497964403628,-0.0014774124173120295,0.02890544478225738,1.636829804261509e-24,0.6755217640754174,8.046581434896866e-87,0.7044272088576748
129.0,0.6902589169016561,0.6919943647519983,0.0007810366980850469,0.037117552208976404,1.7506083594758473e-23,0.6540957758449368,7.637537620501563e-85,0.6912133280539132
129.5,0.6816588943136703,0.6833943421640125,0.0033612154812985295,0.04713398482318722,1.7424493093671642e-22,0.6328991418595268,6.634297013037226e-83,0.680033126682714
130.0,0.6752658439030521,0.6770012917533943,0.0058321158098501025,0.05920332455608521,1.6163841592393891e-21,0.611965851387459,5.282594976848275e-81,0.6711691759435442
130.5,0.6710880140684531,0.6728234619187953,0.007924303524183829,0.07357238337260612,1.399446154784234e-20,0.5913267750220054,3.86195184278042e-79,0.6648991583946114
131.0,0.6694945989924816,0.6712300468428238,0.009743362901401764,0.09047692322305213,1.132388653757411e-19,0.57100976071837,2.5963019407913332e-77,0.6614866839414221
131.5,0.6704042076310117,0.6721396554813539,0.010968705984883309,0.11013121023768752,8.575314074096322e-19,0.551039739258783,1.607532467321788e-75,0.6611709494964706
132.0,0.6732389711300437,0.6749744189803859,0.010818809073830593,0.13271677243604665,6.085476091634696e-18,0.5314388374705087,9.180662231123276e-74,0.6641556099065553
132.5,0.6791075511866216,0.6808429990369638,0.01024567038031532,0.15837083102185187,4.052205613326325e-17,0.5122264976347966,4.843261004877236e-72,0.6705973286566485
133.0,0.6880464209074116,0.6897818687577538,0.009187311316841695,0.18717495580049248,2.535076479790744e-16,0.49341960164041937,2.3636218490933754e-70,0.6805945574409121
133.5,0.6996074248627993,0.7013428727131414,0.007165727114628262,0.21914454704678965,1.491872897732927e-15,0.47503259855172203,1.0685825616774883e-68,0.6941771455985132
134.0,0.7145972431301899,0.7163326909805321,0.005035293962309728,0.2542197626416008,8.26876633775222e-15,0.45707763437661336,4.4815599154899844e-67,0.7112973970182224
134.5,0.7325155820354432,0.7342510298857854,0.002427860639277357,0.29225848631287693,4.321489715431022e-14,0.43956468293358797,1.7459431843725365e-65,0.731823169246508
135.0,0.7523047871408781,0.7540402349912203,-0.0014933110010599826,0.3330318691645534,2.1321358931043096e-13,0.42250167682751366,6.326849099396609e-64,0.7555335459922803
135.5,0.776090225500125,0.7778256733504672,-0.004291838694451933,0.3762228743930192,9.942119356150674e-13,0.4058946376509056,2.1353361276327086e-62,0.7821175120449191
136.0,0.802803147692407,0.8045385955427492,-0.0066373284905854035,0.42142811939907904,4.386411488963237e-12,0.38974780462986913,6.720782948018303e-61,0.8111759240333346
136.5,0.8322403424715774,0.8339757903219196,-0.008251119183326328,0.46816314845546714,1.833071854279933e-11,0.374063761031448,1.9751067495615192e-59,0.8422269095052459
137.0,0.8653989093752806,0.8671343572256228,-0.007580293529249271,0.5158710929409221,7.263614512245313e-11,0.3588435577413138,5.426372879220493e-58,0.8747146507548721
137.5,0.8998236227434827,0.9015590705938249,-0.006462259709366758,0.5639344965227184,2.7320145336219554e-10,0.3440868335072718,1.3953964866610459e-56,0.9080213303031917
138.0,0.93647581123994,0.9382112590902821,-0.0032705848981037233,0.611689911587185,9.763699218387856e-10,0.32979193142483104,3.3625183941129216e-55,0.9414818439883859
138.2,0.9517284402744083,0.9534638881247505,-0.0012900569222283886,0.6305512615872815,1.6023191262709912e-09,0.32420268185737816,1.1794022115488552e-54,0.9547539450469789
138.4,0.9656823399130294,0.9674177877633716,-0.00047643489968307584,0.649207569968858,2.6087289512924826e-09,0.31868665008546776,4.095014992622979e-54,0.9678942226630547
138.6,0.9794479588646515,0.9811834067149937,0.000326137023234252,0.6676136871628762,4.213872753058329e-09,0.31324357831501043,1.407591496928239e-53,0.9808572696917595
138.8,0.9941915207177551,0.9959269685680973,0.0023291991826133174,0.6857245792631664,6.753569414148473e-09,0.30787318336874814,4.790230300816573e-53,0.9935977693854839
139.0,1.0079175726353795,1.0096530204857217,0.0035823248839528254,0.7034955271406083,1.0740179993780695e-08,0.30257515772098076,1.6140818896994534e-52,1.0060706956017689
139.2,1.0202205070859351,1.0219559549362773,0.0037244424960394262,0.7208823249786799,1.694893906232026e-08,0.29734917051261894,5.385359421327192e-52,1.018231512440238
139.4,1.0331334454228491,1.0348688932731913,0.0048325212647610805,0.737841476918862,2.6543155328587544e-08,0.2921948685464129,1.779320089374851e-51,1.0300363720084302
139.6,1.0447459986652523,1.0464814465155945,0.005039137474948774,0.754330390524295,4.125415887681641e-08,0.28711187726219184,5.822021307154166e-51,1.0414423090406457
139.8,1.05559422122468,1.0573296690750222,0.00492223794436919,0.7703075658010456,6.363762343706373e-08,0.28209980169198406,1.8867034316949803e-50,1.052407431130653
140.0,1.0654034519417956,1.0671388997921378,0.004247796403822557,0.7857327785579402,9.743541744265024e-08,0.2771582273949577,6.055823546484318e-50,1.0628911033883153
140.2,1.0751020489984708,1.076837496848813,0.003983370456813962,0.8005672569380511,1.4808186376389827e-07,0.27228672137208426,1.925359613033284e-49,1.072854126391999
140.4,1.084040204159922,1.0857756520102642,0.00351674562787907,0.8147738500161708,2.2340569953650247e-07,0.26748483296051484,6.0638533703177356e-49,1.082258906382385
140.6,1.0915076488803896,1.0932430967307318,0.002173480001523842,0.8283171874268965,3.345946580927466e-07,0.26275209470765337,1.8919628188241144e-48,1.091069616729208
140.8,1.0980239422451348,1.099759390095477,0.0005070402954476805,0.8411638290660967,4.975090101922355e-07,0.2580880232249225,5.848334876082964e-48,1.0992523498000293
141.0,1.10405460596372,1.1057900538140621,-0.000985204654908367,0.8532824039935095,7.344541711726301e-07,0.25349212002128985,1.7911667792198385e-47,1.1067752584689705
141.2,1.1099490634581515,1.1116845113084937,-0.0019241753147953844,0.8646437377555753,1.0765511374186645e-06,0.24896387231657618,5.435658730327843e-47,1.113608686623289
141.4,1.1142957317998947,1.116031179650237,-0.00369410850556684,0.8752209674436451,1.5668775007018167e-06,0.24450275383465786,1.6345894238167296e-46,1.1197252881558037
141.6,1.1184582009010775,1.1201936487514197,-0.0049064853196667535,0.8849896439030698,2.2645913793465695e-06,0.2401082255766374,4.871170089082978e-46,1.1251001340710864
141.8,1.1232218368856377,1.12495728473598,-0.004753522745764682,0.8939278206118147,3.2502958242573885e-06,0.23577973657410561,1.4386447159276963e-45,1.1297108074817446
142.0,1.1255777027905052,1.1273131506408474,-0.0062243357859153026,0.9020161288523619,4.632951769726871e-06,0.231516724622631,4.211112010035002e-45,1.1335374864267627
142.2,1.1288989439958164,1.1306343918461585,-0.005928622758749613,0.9092378389067005,6.558702588419847e-06,0.22731861699561925,1.221771869525332e-44,1.1365630146049082
142.4,1.1311275298899732,1.1328629777403154,-0.0059099825397956884,0.9155789071100441,9.222031352732379e-06,0.22318483113871432,3.5136657034012895e-44,1.138772960280111
142.6,1.1329276849551333,1.1346631328054755,-0.005492530973967069,0.9210280087036916,1.2879730835536649e-05,0.2191147753449153,1.0016925322644537e-43,1.1401556637794426
142.8,1.1335553689192155,1.1352908167695577,-0.00541145739424409,0.9255765565301354,1.786822307133386e-05,0.215107849410595,2.8309916680864764e-43,1.1407022741638018
143.0,1.1346254088775367,1.136360856727879,-0.0040459190739441375,0.92921870571324,2.4624815944043806e-05,0.21116344527263914,7.932300860889101e-43,1.140406775801823
143.2,1.1341389550556913,1.1358744029060335,-0.003391602806916083,0.9319513445623151,3.371352373372994e-05,0.20728094762690077,2.203648207573267e-42,1.1392660057129496
143.4,1.1333523978657856,1.1350878457161278,-0.002191816943125424,0.9337740720302792,4.5856100755613043e-05,0.20345973452821847,6.070070225114225e-42,1.1372796626592532
143.6,1.1309312629035524,1.1326667107538946,-0.0017835982957419283,0.9346891621423333,6.196893508649421e-05,0.19969917797221673,1.6579796439174285e-41,1.1344503090496365
143.8,1.1287249129785648,1.130460360828907,-0.0003230059370917804,0.9347015158918781,8.320641498607234e-05,0.1959986444591346,4.490804654425385e-41,1.1307833667659988
144.0,1.1236526140576364,1.1253880619079786,-0.0008990461118494331,0.9338186011743765,0.00011101130550074219,0.1923574955399507,1.2062960093822489e-40,1.126287108019828
144.2,1.1189434947005115,1.1206789425508537,-0.00029369973941761884,0.9320503813970136,0.00014717254821562073,0.18877508834504217,3.213612032516456e-40,1.1209726422902713
144.4,1.1132591337721716,1.1149945816225137,0.00014068135003486582,0.9294092334619612,0.00019389071485320682,0.18525077609566445,8.491173218693162e-40,1.1148539002724789
144.6,1.1068403089457075,1.1085757567960497,0.0006281412259414587,0.9259098558735642,0.000253851098030857,0.18178390859851307,2.2253654484752777e-39,1.1079476155701082
144.8,1.0997993822833052,1.1015348301336474,0.0012615255410506343,0.9215691677646176,0.0003303041043326821,0.17837383272364649,5.78520639260316e-39,1.1002733045925968
145.0,1.091253711716632,1.0929891595669743,0.0011359148040259726,0.916406199674044,0.00042715222283827277,0.17501989286606598,1.4919166227161507e-38,1.0918532447629483
145.2,1.0824848465117607,1.0842202943621029,0.0015078436565687525,0.9104419769375672,0.0005490423767478151,0.1717214313912192,3.816827581768481e-38,1.0827124507055341
145.4,1.0730144422775119,1.074749890127854,0.0018712425570330815,0.9036993965746394,0.0007014619314443468,0.16847778906473712,9.687612385107248e-38,1.072878647570821
145.6,1.0631560875658137,1.0648915354161559,0.002509295341532214,0.8962030985688622,0.0008908360390694717,0.1652883054666921,2.4395567934934255e-37,1.0623822400746237
145.8,1.0530183525724268,1.054753800422769,0.003497525223302267,0.8879793324457352,0.0011246233630637158,0.16215231939066768,6.09549026413937e-37,1.0512562751994667
146.0,1.0411755642360436,1.0429110120863858,0.0033746162394450163,0.8790558200510611,0.0014114065679273562,0.15906916922795225,1.511239378518068e-36,1.0395363958469408
146.2,1.0290526474899724,1.0307880953403146,0.003527313269507504,0.8694616154259025,0.0017609733077566484,0.15603819333714794,3.717988083178823e-36,1.027260782070807
146.4,1.0163963296033036,1.0181317774536458,0.0036617015581119627,0.8592269626601245,0.002184382835916299,0.15305873039949294,9.077282707344368e-36,1.0144700758955338
146.6,1.0027446434032627,1.004480091253605,0.0032728060799782632,0.8483831525867018,0.0026940128267051748,0.15013011976021956,2.1993771731829502e-35,1.0012072851736267
146.8,0.9888127919811049,0.9905482398314471,0.00303057833083209,0.8369623791532462,0.003303580591147841,0.1472517017562209,5.288861831942895e-35,0.987517661500615
147.0,0.9733405649898504,0.9750760128401926,0.0016274659048756135,0.8249975962767123,0.004028132628244031,0.14442281803036058,1.2623096017981662e-34,0.973448546935317
147.2,0.9585879838983404,0.9603234317486826,0.0012742475391619434,0.8125223759516744,0.004883996425144517,0.14164281183270178,2.9904258191917227e-34,0.9590491842095207
147.4,0.9426756027764768,0.944411050626819,4.056532774165955e-05,0.7995707683432406,0.005888688646860772,0.1389110283089759,7.0321127144734595e-34,0.9443704852990773
147.6,0.9266916817419144,0.9284271295922566,-0.001037624111327684,0.7861771645524923,0.007060774374507522,0.13622681477658452,1.6415202443546576e-33,0.9294647537035843
147.8,0.9110463854962736,0.9127818333466158,-0.001603523225885417,0.772376162696157,0.00841967288791636,0.13358952098842783,3.803961520042017e-33,0.9143853565725012
148.0,0.8948605143836273,0.8965959622339695,-0.0025903817033791077,0.7582024378936486,0.009985406658826745,0.13099849938487323,8.751391141340269e-33,0.8991863439373486
148.2,0.8787848259772079,0.88052027382755,-0.0034017399352798128,0.743690616703736,0.011778291724952874,0.12845310533414087,1.9988981881097552e-32,0.8839220137628299
148.4,0.8638572712747078,0.86559271912505,-0.0030537041733388337,0.7288751565011059,0.013818569435865728,0.12595269736141726,4.533130082689473e-32,0.8686464232983888
148.6,0.8494003660479481,0.8511358138982903,-0.002277035361351709,0.7137902302297802,0.016125981662882944,0.12349663736697887,1.0207532804902526e-31,0.853412849259642
148.8,0.8358646990465162,0.8376001468968584,-0.0006730547448927648,0.6984696169167007,0.018719293891439732,0.12108429083361055,2.282335518929727e-31,0.8382732016417511
149.0,0.8220103373699817,0.8237457852203239,0.00046838683044936325,0.6829465982752158,0.021615773091039504,0.11871502702361938,5.067516181012987e-31,0.8232773983898746
149.2,0.8093870823977325,0.8111225302480747,0.0026498196148911912,0.6672538616746797,0.024830629792794264,0.11638821916570952,1.1173479600411532e-30,0.8084727106331835
149.4,0.7959247670484288,0.797660214898771,0.003757124275741819,0.6514234097000705,0.028376436290948544,0.1141032446320102,2.4466954418799075e-30,0.7939030906230292
149.6,0.7827162067156905,0.7844516545660327,0.004843157780823226,0.6354864764740727,0.032262535205606506,0.11185948510553026,5.320959357726939e-30,0.7796084967852095
149.8,0.7696820823596365,0.7714175302099787,0.005793297930707375,0.6194734508642507,0.03649445467671504,0.10965632673830565,1.1493141505464273e-29,0.7656242322792713
150.0,0.7567753846147045,0.7585108324650467,0.00653051743188493,0.60341380665002,0.04107334808262341,0.10749316030051836,2.465735137966351e-29,0.7519803150331618
150.5,0.7253227320133101,0.7270581798636523,0.007555925247991646,0.5632451874011808,0.054000813094785535,0.10225625411969433,1.6142786002106548e-28,0.7195022546156606
151.0,0.6942306605963643,0.6959661084467065,0.006485965714747688,0.5233764976493551,0.06884742082397748,0.09725622425862625,1.0140509884457102e-27,0.6894801427319588
151.5,0.6635853822057253,0.6653208300560675,0.00348915447589615,0.4841793200850639,0.08516839118573487,0.0924839643093726,6.116343635782628e-27,0.6618316755801713
152.0,0.6344479445859802,0.6361833924363224,-1.3093010075237999e-05,0.44597811086267397,0.10228779481721356,0.08793057976651006,3.544628265293313e-26,0.6361964854463976
152.5,0.6075872278383809,0.6093226756887231,-0.002649345595919006,0.4090489994325484,0.11933562589417603,0.0835873959579176,1.975089263786797e-25,0.6119720212846421
153.0,0.5823516282162035,0.5840870760665456,-0.004297840976513423,0.3736199209447393,0.13531903169896292,0.07944596439935675,1.0588272132561203e-24,0.5883849170430591
153.5,0.5581209542416283,0.5598564020919705,-0.004733546919627241,0.3398719022825854,0.14921997902325268,0.07549806770575972,5.464691776720748e-24,0.5645899490115978
154.0,0.5324378816062454,0.5341733294565876,-0.005609359087614729,0.3079413088489019,0.16010565650999362,0.07173572318530672,2.7169597177642896e-23,0.5397826885442023
154.5,0.505368557162063,0.5071040050124052,-0.0062045001165870195,0.2779228548612671,0.16723446503218345,0.0681511852355416,1.302109150760394e-22,0.5133085051289922
155.0,0.4771878114032632,0.47892325925360546,-0.005827376630288761,0.24987318376341427,0.17014050546646825,0.0647369466540117,6.018981869891975e-22,0.4847506358838942
155.5,0.44822377922926754,0.4499592270796098,-0.00402445826081721,0.22381483591161377,0.1686831104595757,0.06148573896923748,2.68515957463945e-21,0.453983685340427
156.0,0.4174840688561927,0.41921951670653496,-0.0019657889801000805,0.19974043637971134,0.1630543374156464,0.05839053189127728,1.1567615195445226e-20,0.42118530568663504
156.5,0.3859060676635651,0.38764151551390735,0.0008350999355173361,0.17761695501284644,0.15374492859077346,0.055444531974770124,4.814984097473523e-20,0.38680641557839
157.0,0.35400012168852235,0.3557355695388646,0.004228167561766305,0.15738991232540567,0.1414763090705417,0.052641180581150894,1.9376229383384082e-19,0.3515074019770983
157.5,0.3220320623516252,0.3237675102019674,0.007694686071714363,0.13898742722115426,0.12711124568835389,0.04997415122074486,7.5423854455709895e-19,0.31607282413025306
