wavelength,absorbance,absorbance_bk,residual_3gauss
117.0,0.4326847049920765,0.43742837454807504,-0.005606375175378597
117.5,0.42874994554591733,0.43349361510191586,-0.005673255248899778
118.0,0.42494405723545114,0.4296877267914497,-0.005071151707716548
118.5,0.4221163547151719,0.4268600242711704,-0.002982699469459227
119.0,0.41832627163648795,0.4230699411924865,-0.0013813136516515612
119.5,0.4141673331299626,0.41891100268596115,0.0002929563199344787
120.0,0.4110717247822083,0.41581539433820686,0.0034381252055105116
120.5,0.4050605355892355,0.409804205145234,0.004040589527481431
121.0,0.3991628445149141,0.4039065140709126,0.005094221384392472
121.5,0.3924523103050794,0.3971959798610779,0.005636884553365806
122.0,0.384172425018058,0.3889160945740565,0.004875519311042575
122.5,0.3767871116968125,0.38153078125281104,0.005236463058078955
123.0,0.36615037080318286,0.3708940403591814,0.0025347003091631404
123.5,0.3577807858035519,0.3625244553595504,0.0022478457157321663
124.0,0.34848467400955746,0.353228343565556,0.001138646284372491
124.5,0.3390525457714043,0.34379621532740284,-4.9324590578436744e-05
125.0,0.32891888815469533,0.33366255771069386,-0.001932743495545286
125.5,0.320043370184129,0.3247870397401275,-0.0026082505606562223
126.0,0.31183408028558585,0.3165777498415844,-0.002730137377999431
126.5,0.30318233091673025,0.3079260004727288,-0.003476405513394565
127.0,0.29561300168251287,0.3003566712385114,-0.0033991400233306934
127.5,0.288155668958596,0.29289933851459454,-0.003553853015013264
128.0,0.2818908008690558,0.28663447042505436,-0.002953413681213879
128.5,0.2764775894887164,0.28122125904471496,-0.0020398872535207224
129.0,0.2717055176930317,0.2764491872490302,-0.0011320873016898991
129.5,0.2679842841837691,0.2727279537397676,6.586310005690654e-05
130.0,0.2647511198292226,0.26949478938522115,0.000874048159829055
130.5,0.2626564579275968,0.2674001274835953,0.0018253335775759716
131.0,0.261445681357361,0.26618935091335955,0.002550693176851193
131.5,0.2614249165784546,0.26616858613445316,0.003249179688570414
132.0,0.2620552076179556,0.2667988771739541,0.0032867423169885557
132.5,0.2640162789324515,0.26875994848845003,0.0032649192936089477
133.0,0.2673276218677712,0.27207129142376973,0.0031469157391688096
133.5,0.2717099102942952,0.27645357985029373,0.002623815039591526
134.0,0.27720214245698915,0.2819458120129877,0.001736044906018197
134.5,0.28428211022984845,0.289025779785847,0.0009974222067430927
135.0,0.2922042459745139,0.2969479155305124,-0.00026443278614290966
135.5,0.30169892813425325,0.3064425976902518,-0.001207454816335718
136.0,0.3123757932677367,0.3171194628237352,-0.0020718866369082156
136.5,0.3243620595891548,0.32910572914515335,-0.0025435233017142567
137.0,0.3374319505435143,0.34217562009951286,-0.0026273832682915943
137.5,0.35189735814721945,0.356641027703218,-0.0017616081600132505
138.0,0.3670734462142752,0.3718171157702737,-0.000357751151179142
138.2,0.3728351990115864,0.37757886856758494,-8.872204762355729e-05
138.4,0.37837556326943256,0.3831192328254311,-3.4335338645608005e-06
138.6,0.3837857513319771,0.38852942088797565,8.48468575048722e-06
138.8,0.39000371478057466,0.3947473843365732,0.000904189352993634
139.0,0.39597251200310263,0.40071618155910116,0.0016459037585501712
139.2,0.4008304828170106,0.40557415237300914,0.0013910045319233677
139.4,0.40654634382559496,0.4112900133815935,0.0021270293912623583
139.6,0.41120129840543856,0.4159449679614371,0.001953700338579334
139.8,0.41586241259808254,0.4206060821540811,0.0019562141490832574
140.0,0.4208514373443356,0.42559510690033414,0.002473981150717175
140.2,0.4245302941764601,0.42927396373245863,0.00188602994263809
140.4,0.42834073190317706,0.4330844014591756,0.001650586090991557
140.6,0.4316241815043729,0.4363678510603714,0.0011248524861898201
140.8,0.4340666315116307,0.43881030106762925,9.814063338831058e-06
141.0,0.4366496197193649,0.4413932892753634,-0.000698836891161847
141.2,0.43912200845418053,0.44386567801017907,-0.0012389872935645863
141.4,0.4410564763895408,0.44580014594553935,-0.0020256684218495913
141.6,0.44349471550362907,0.4482383850596276,-0.0020059108754592048
141.8,0.44506774605018146,0.44981141560618,-0.0025384763247058295
142.0,0.44668010722861046,0.451423776784609,-0.0027097082905768177
142.2,0.4481245603221948,0.4528682298781933,-0.002718865183261421
142.4,0.4495092470475343,0.45425291660353284,-0.002450992923845041
142.6,0.45018763951169294,0.45493130906769147,-0.0025470008898310637
142.8,0.45066676817967827,0.4554104377356768,-0.0024954549853303254
143.0,0.45140973630414394,0.45615340586014247,-0.0018300796486355186
143.2,0.45154970401378863,0.45629337356978716,-0.0014157859185517374
143.4,0.4514424576744772,0.45618612723047575,-0.0008961103057568143
143.6,0.4506549465679502,0.4553986161239487,-0.0007046828131836436
143.8,0.44979885502715466,0.4545425245831532,-0.00023165636658634137
144.0,0.4481787115235428,0.45292238107954136,-0.00017559655099402827
144.2,0.44612314148136384,0.45086681103736237,-0.00021222523625530343
144.4,0.4439281027619316,0.44867177231793015,-5.1179447725813176e-05
144.6,0.4416015603702264,0.44634522992622494,0.0003086708589887799
144.8,0.4390566512945452,0.4438003208505437,0.0007723969361584926
145.0,0.4362487434627649,0.4409924130187634,0.0012860813319199305
145.2,0.4326918479617584,0.43743551751775694,0.0013532433035824964
145.4,0.4291195895215528,0.43386325907755136,0.0016958249871169562
145.6,0.4249413171160416,0.42968498667204014,0.0017103208239894752
145.8,0.4204310313514816,0.4251747009074801,0.0016567277982277306
146.0,0.4156159977322492,0.42035966728824775,0.0015471866897829867
146.2,0.4111531524344984,0.41589682199049693,0.002022422317395023
146.4,0.4055964443023672,0.4103401138583657,0.00161912803160158
146.6,0.39996955590761424,0.40471322546361277,0.0013427390107115245
146.8,0.39473614897023673,0.39947981852623526,0.0016377414820650804
147.0,0.3879544846270721,0.39269815418307064,0.0005423702238370187
147.2,0.38220755328799466,0.3869512228439932,0.000618830914642321
147.4,0.37545698101971026,0.3802006505757088,-0.00019268403992456218
147.6,0.36905744659420847,0.373801116150207,-0.0005594506243704611
147.8,0.3627585159532679,0.36750218550926644,-0.0007542314421613572
148.0,0.35584416032476535,0.3605878298807639,-0.0015155902193089155
148.2,0.34912654432597345,0.353870213881972,-0.0020539162387143706
148.4,0.34339254879994213,0.34813621835594066,-0.0016046946466616863
148.6,0.337163475252574,0.34190714480857254,-0.0016685772345252925
148.8,0.33181614901415246,0.336559818570151,-0.0008900388898391842
149.0,0.32590322070001126,0.3306468902560098,-0.0007368233418537651
149.2,0.32107969602188563,0.32582336557788416,0.00042684776842294436
149.4,0.3152870675985752,0.32003073715457375,0.0005246712178815782
149.6,0.31007872252988894,0.31482239208588747,0.001093932007873999
149.8,0.3045883174576571,0.3093319870136556,0.0012541320450492055
150.0,0.29967172115216334,0.30441539070816187,0.0018491709322388528
150.5,0.28845897967874734,0.29320264923474587,0.003751139817008531
151.0,0.27574188883032513,0.28048555838632366,0.003151482485940882
151.5,0.2634675983760416,0.26821126793204014,0.0020320894180529403
152.0,0.25186406986999743,0.25660773942599596,0.0007651658895455604
152.5,0.2407129020485821,0.24545657160458065,-0.0006289803105231084
153.0,0.23077361184848433,0.2355172814044829,-0.0010858920801904703
153.5,0.22073647519319292,0.22548014474919148,-0.0015824307628496403
154.0,0.21038282286897247,0.21512649242497103,-0.0020196409808120874
154.5,0.1995544122691844,0.20429808182518297,-0.0022949987785824133
155.0,0.1877965229835572,0.19254019253955576,-0.0026930769468599125
155.5,0.17633780074659194,0.1810814703025905,-0.0019266160850439362
156.0,0.1640709893075136,0.16881465886351216,-0.001161163164792589
156.5,0.1514767643925444,0.15622043394854296,-8.108703902637293e-05
157.0,0.1388598832169923,0.14360355277299086,0.0013696624223829834
157.5,0.12589362309803231,0.13063729265403087,0.002563572142924103
158.0,0.1129679529383436,0.11771162249434214,0.003572476018050899
158.5,0.10004380690458792,0.10478747646058646,0.004054576211379654
159.0,0.08736829493130006,0.09211196448729861,0.003996309112658733
159.5,0.07479398053256783,0.07953765008856638,0.0030496670581399016
160.0,0.0628410279807395,0.06758469753673804,0.001602980475642224
160.5,0.051630696436381546,0.05637436599238009,-0.00028564264423392577
161.0,0.0418573700881162,0.046601039644114745,-0.0019232320328722366
161.5,0.033599070324437735,0.03834273988043628,-0.0031829309890062385
162.0,0.026130222515502555,0.030873892071501104,-0.004704860499787897
162.5,0.019808886834771253,0.0245525563907698,-0.006022589627483341
163.0,0.015100527793010132,0.01984419734900868,-0.006551612888021023
163.5,0.010938847741537196,0.015682517297535743,-0.007238400091837308
164.0,0.007534194683543157,0.012277864239541705,-0.007759161819762585
164.5,0.004744111437787284,0.009487780993785833,-0.008153853981450142
165.0,0.002700199582246677,0.007443869138245225,-0.008201622082912642
165.5,0.0011462757365404313,0.005889945292538979,-0.008083219779464676
166.0,0.0001842479625179204,0.004927917518516468,-0.007634508336034138
166.5,-0.0010970593568136219,0.0036466101991849253,-0.007716287673450971
167.0,-0.0014617131651668783,0.003281956390831669,-0.007052422752443288
167.5,-0.0020922139468476215,0.002651455609150926,-0.006793642155322049
168.0,-0.0028278018392885653,0.001915867716709982,-0.006754213152693774
168.5,-0.003067409786965308,0.0016762597690332393,-0.006313470113999613
169.0,-0.003566122904050971,0.0011775466519475765,-0.00621108993878143
169.5,-0.003622498116693589,0.0011211714393049585,-0.0057334645939864865
170.0,-0.003499354195478151,0.0012443153605203963,-0.005133755290549441
170.5,-0.004141597361382659,0.000602072194615888,-0.005349158619020928
171.0,-0.004162758741189477,0.0005809108148090705,-0.004987024767131987
171.5,-0.0038040060034833455,0.0009396635525152019,-0.004283557225339832
172.0,-0.004223073142223648,0.0005205964137748997,-0.004392510270303918
172.5,-0.004171193718449421,0.0005724758375491266,-0.004061947530489574
173.0,-0.004743669555998547,0.0,-0.004384676829567834
173.5,-0.004689583904394912,5.4085651603635355e-05,-0.004107857872842205
174.0,-0.0046026147997255485,0.00014105475627299892,-0.0038237294790159056
174.5,-0.004669644552013969,7.402500398457842e-05,-0.003718145831934135
175.0,-0.004183748165785772,0.000559921390212775,-0.003083499992947247
175.5,-0.004152761976040268,0.0005909075799582792,-0.002927232760172711
176.0,-0.0036961743603397576,0.0010474951956587898,-0.00236866654160645
176.5,-0.003509593760939791,0.0012340757950587565,-0.0021034180348473257
177.0,-0.003415925315398166,0.0013277442406003813,-0.0019545201593162767
177.5,-0.003136808602111983,0.0016068609538865642,-0.0016438053761719464
178.0,-0.003046287412747937,0.0016973821432506105,-0.001545521344368187
178.5,-0.0025873412726128454,0.002156328283385702,-0.0011028090212780416
179.0,-0.0028547356336262176,0.0018889339223723297,-0.001410500819122325
179.5,-0.0024713780963892137,0.0022722914596093337,-0.001091427105680123
180.0,-0.0018572720593914244,0.0028863974966071232,-0.0005653235650651947
180.5,-0.0022271473176687685,0.002516522238329779,-0.001046420177778798
181.0,-0.0012696655346357496,0.003474004021362798,-0.00022261102713759615
181.5,-0.0005075742009013025,0.004236095355097245,0.000384420200686499
182.0,-0.0004140983844682176,0.00432957117153033,0.0003028285720327985
182.5,0.00024018175349672217,0.00498385130949527,0.0007637411761562711
183.0,-2.6484285422995835e-05,0.004717185270575551,0.00028744262839412813
183.5,0.00015676795603940927,0.004900437512037957,0.0002471506537244008
184.0,0.0006213415794374964,0.005365011135436044,0.00047691953433106823
184.5,0.0008733537260036781,0.005617023282002226,0.0004857850239257458
185.0,0.0007966394939703462,0.005540309049968894,0.0001607282078692901
185.5,0.0011541682081748596,0.005897837764173407,0.0002680431623336829
186.0,0.001550205249813314,0.006293874805811861,0.0004154429706677461
186.5,0.0018712347826259567,0.006614904338624504,0.0004929210627769801
187.0,0.0018741854098519371,0.006617854965850484,0.0002609117584341982
187.5,0.0017096526617450176,0.006453322217743565,-0.00012655409484714324
188.0,0.002415790078928728,0.007159459634927276,0.00037197543152650905
188.5,0.002467256056387417,0.007210925612385965,0.000234256019298296
189.0,0.0031544774373845155,0.007898146993383063,0.0007535508245786011
189.5,0.0025966391121298475,0.007340308668128395,5.156627240943731e-05
190.0,0.002797503288381189,0.007541172844379737,0.00013422512437929503
190.5,0.003180015556821126,0.007923685112819673,0.0004262351848780318
191.0,0.002915563799676602,0.00765923335567515,0.00010032060881895108
191.5,0.003041807112972889,0.007785476668971437,0.00019503354409996284
192.0,0.002701059098161344,0.0074447286541598915,-0.00014686933126626528
192.5,0.002964670855228571,0.0077083404112271185,0.0001459598084259028
193.0,0.002721166706565134,0.007464836262563682,-3.8390810673287305e-05
193.5,0.0028334223673933123,0.00757709192339186,0.00016210827350111087
194.0,0.002656268388060961,0.007399937944059508,0.00010106198484226541
194.5,0.0018649063625756183,0.006608575918574166,-0.0005478953955729282
195.0,0.0017035930251762576,0.006447262581174805,-0.0005423729001954045
195.5,0.0012933608336703072,0.006037030389668855,-0.0007634549549094512
196.0,0.0007002314799881854,0.005443901035986733,-0.0011474378978178438
196.5,0.0004989224620952781,0.005242592018093826,-0.001122072248385864
197.0,0.00036001061524808367,0.005103680171246631,-0.0010193482026769167
197.5,0.0002815231024066809,0.005025192658405228,-0.0008438551162392735
198.0,-0.00012843845338234773,0.004615231102616199,-0.0009901104083730955
198.5,-0.0003554978014302704,0.004388171754568277,-0.0009463159423334462
199.0,-0.0006214332273190412,0.004122236328679506,-0.0009367480117594088
199.5,-0.0012897448431618992,0.003453924712836648,-0.0013272903007584096
200.0,-0.0009260595291374735,0.003817610026861074,-0.0006858097247326575
200.5,-0.001045078930207328,0.0036985906257912195,-0.0005290807551362503
201.0,-0.000781142370835399,0.003962527185163148,6.669879417329702e-06
201.5,-0.0010982599847553687,0.0036454095712431787,-4.4257058978797344e-05
202.0,-0.00112520836961575,0.003618461186382797,0.00018787882287540957
202.5,-0.00136830015536097,0.0033753694006375774,0.00019549105479323798
203.0,-0.0012001247708956226,0.0035435447851029245,0.0006049243348774697
203.5,-0.0011607331452021012,0.0035829364107964464,0.000875264857272697
204.0,-0.0012341520054881012,0.0035095175505104464,0.0010218178172676168
204.5,-0.0013226806580927868,0.003420988897905761,0.0011417997686850585
205.0,-0.0012899740099463195,0.003453695546052228,0.0013712426345568515
205.5,-0.0014851445834711547,0.0032585249725273924,0.0013608771590587314
206.0,-0.0013705556946385048,0.003373113861360043,0.0016483241407087633
206.5,-0.0015083359945502668,0.0032353335614482806,0.0016715637147088444
207.0,-0.0011550503899369663,0.003588619166061581,0.002174248088335015
207.5,-0.00117543457562635,0.0035682349803721975,0.0022919508618408574
208.0,-0.001290202374588627,0.00345346718140992,0.002304344048613091
208.5,-0.0011227468165889384,0.003620922739409609,0.0025884821164448373
209.0,-0.0010573365485112638,0.0036863330074872833,0.0027605916548328717
209.5,-0.0010181982084407383,0.003725471347557809,0.0028969761822306966
210.0,-0.0012716230343427504,0.003472046521655797,0.002731897920572617
210.5,-0.0015202309404195665,0.003223438615578981,0.0025633033591528466
211.0,-0.0016584904222847676,0.00308517913371378,0.0024972942642628297
211.5,-0.001531802817397154,0.0032118667386013934,0.0026890355936664556
212.0,-0.001193200326537046,0.0035504692294615016,0.00308605086923277
212.5,-0.0011741007786557928,0.003569568777342755,0.0031574619635050412
213.0,-0.0014651422537121422,0.003278527302286405,0.002913150107811223
213.5,-0.0013030162387869,0.0034406533172116477,0.00311691935762537
214.0,-0.0013608430849116706,0.0033828264710868768,0.0030961186516987893
214.5,-0.0010069909627469073,0.00373667859325164,0.00348282116736429
215.0,-0.0015412551674140727,0.0032024143885844747,0.002977644021905179
215.5,-0.0011624856182507275,0.00358118393774782,0.0033821203766005808
216.0,-0.0007369031305103103,0.004006766425488237,0.0038303832729923463
216.5,-0.00022710560452907268,0.004516563951469475,0.0043601599681219174
217.0,-0.0007389302190910857,0.004004739336907461,0.003865910601059431
217.5,-0.0009832589261442083,0.0037604106298543393,0.0036370238200998635
218.0,-0.00043383500713683207,0.004309834548861715,0.004200001544718198
218.5,-0.0007264949119478323,0.004017174644050715,0.003919228583589783
219.0,-0.0008076584426929262,0.0039360111133056215,0.003848483996445173
219.5,-0.00045926131743327545,0.004284408238565272,0.0042060101222413495
220.0,-0.0005926730258111021,0.004150996530187445,0.004080596326137509
