wavelength,absorbance,absorbance_bk,residual_3gauss,Gauss_1,Gauss_2,Gauss_3,Gauss_4,Gauss_fit
117.0,0.2178440428505201,0.217981654255171,-0.0030481683944373617,1.464531705447471e-07,4.282901645914258e-50,0.22102967619643782,3.6272100470687544e-72,0.22102982264960835
117.5,0.21706006256977367,0.21719767397442458,-0.0015900406573255699,2.766336879450356e-07,1.8882354617525695e-48,0.2187874379980622,1.195989326019174e-70,0.21878771463175015
118.0,0.2154349351507029,0.2155725465553538,-0.0007128733794681263,5.12287166854544e-07,7.553856161440593e-47,0.21628490764765507,3.684749601881475e-69,0.21628541993482192
118.5,0.21330005634316823,0.21343766774781914,-0.00010211646957858367,9.304900048252785e-07,2.747681421738694e-45,0.2135388537273929,1.0621776711085133e-67,0.21353978421739772
119.0,0.2118515431421244,0.2119891545467753,0.0014211784994522803,1.6583759968910232e-06,9.105814723134465e-44,0.21056631767132614,2.868560428553661e-66,0.21056797604732302
119.5,0.20902314325571,0.2091607546603609,0.001773360112065081,2.901390769417563e-06,2.7547062739155535e-42,0.2073844931575264,7.267159373126148e-65,0.20738739454829583
120.0,0.2047457430024516,0.2048833544071025,0.0008677563800527643,4.9848950301883525e-06,7.621936208842947e-41,0.20401061313201957,1.7291903720119839e-63,0.20401559802704974
120.5,0.20359311887001263,0.20373073027466354,0.0032604713788005057,8.41400756461549e-06,1.9324088334490176e-39,0.2004618448882984,3.8692759277537126e-62,0.20047025889586303
121.0,0.20161417570823512,0.20175178711288602,0.004982635933597546,1.395768433460475e-05,4.497465056086253e-38,0.19675519349495388,8.151635248085685e-61,0.19676915117928848
121.5,0.19703163528653847,0.19716924669118938,0.004239068871507795,2.276407668710708e-05,9.625975680569671e-37,0.19290741374299447,1.6188091723566692e-59,0.19293017781968158
122.0,0.19175923927798083,0.19189685068263174,0.002925404975051199,3.651503328157492e-05,1.8979518755755154e-35,0.18893493067429895,3.0337434653125843e-58,0.18897144570758054
122.5,0.1878429453034209,0.18798055670807182,0.003069160066840132,5.762798749761439e-05,3.4532423947898943e-34,0.18485376865373407,5.371303397478628e-57,0.18491139664123168
123.0,0.18268093702635352,0.18281854843100442,0.0020495464309393807,8.951314025521245e-05,5.80752967948759e-33,0.18067948885980983,8.994411224061292e-56,0.18076900200006504
123.5,0.17859013103812468,0.1787277424427756,0.002163714933793748,0.00013689251668581664,9.042384070787989e-32,0.17642713499229604,1.4260085422977988e-54,0.17656402750898184
124.0,0.17322121999122783,0.17335883139587874,0.0010414596078613114,0.00020618485832623546,1.3055400956533068e-30,0.17211118692969118,2.142800483103432e-53,0.17231737178801743
124.5,0.16725868684712605,0.16739629825177696,-0.000655179935543232,0.0003059561729274903,1.750597269959782e-29,0.1677455220143927,3.054889432100875e-52,0.1680514781873202
125.0,0.1617103605882007,0.1618479719928516,-0.001942841569589543,0.00044742996402644467,2.183377660634292e-28,0.16334338359841472,4.1361628906865066e-51,0.16379081356244116
125.5,0.15709968743045835,0.15723729883510926,-0.0023251013317703573,0.0006450437200325117,2.5366530376739494e-27,0.1589173564468471,5.323691897706232e-50,0.15956240016687961
126.0,0.15221394121389378,0.1523515526185447,-0.0030448253331457065,0.0009170293823486757,2.749232339804096e-26,0.15447934856934173,6.520139324876738e-49,0.1553963779516904
126.5,0.1476167722242742,0.1477543836289251,-0.003572181104941785,0.0012859857028553676,2.7835210268570965e-25,0.1500405790310115,7.605645376730823e-48,0.15132656473386688
127.0,0.14368325041643415,0.14382086182108506,-0.0035701098315058244,0.0017794003701082565,2.636398590545186e-24,0.14561157128248262,8.457622248238984e-47,0.14739097165259088
127.5,0.1396646126035903,0.13980222400824122,-0.0038299980336311545,0.0024300704981344992,2.339098964400614e-23,0.14120215154373786,8.973931398017881e-46,0.14363222204187237
128.0,0.13615411845613495,0.13629172986078586,-0.003806084599486087,0.0032763626832346287,1.9466215413800735e-22,0.1368214517770373,9.093275564366876e-45,0.14009781446027195
128.5,0.13396569905378197,0.13410331045843288,-0.002736855915187436,0.004362249583687217,1.5214987718156156e-21,0.1324779167899331,8.807119109875818e-44,0.13684016637362031
129.0,0.13100538409217413,0.13114299549682504,-0.0027733795893726543,0.005737060066766422,1.1183254752094951e-20,0.12817931501943128,8.159961918239432e-43,0.1339163750861977
129.5,0.12951553597481316,0.12965314737946407,-0.001734490591655341,0.007454885409011427,7.739424645023611e-20,0.12393275256210798,7.238360940459911e-42,0.1313876379711194
130.0,0.12817247703488507,0.12831008843953598,-0.0010081970862889644,0.009573595494068225,5.049153018149253e-19,0.11974469003175671,6.152331520651438e-41,0.12931828552582494
130.5,0.12670126469109447,0.12683887609574537,-0.0009355223521848033,0.012153436602547302,3.1089366275067046e-18,0.11562096184538288,5.014513442691248e-40,0.12777439844793018
131.0,0.12644930497607665,0.12658691638072755,-0.0002350869871411143,0.015255205808346205,1.8088043033252857e-17,0.11156679755952244,3.922314800245711e-39,0.12682200336786867
131.5,0.12647993373787952,0.12661754514253043,9.267512524382959e-05,0.01893802511585798,9.955192369792672e-17,0.10758684490142852,2.9465150162915485e-38,0.1265248700172866
132.0,0.1272612423023393,0.1273988537069902,0.0004568899508531066,0.0232567695929035,5.188806002959948e-16,0.10368519416323307,2.127397195206054e-37,0.1269419637561371
132.5,0.1288566028686082,0.1289942142732591,0.0008695749812140663,0.02825923564073079,2.5639873295802496e-15,0.09986540365131168,1.477327171452731e-36,0.12812463929204504
133.0,0.131165469171912,0.1313030805765629,0.0011893890757823378,0.033983165593329395,1.2024189487463016e-14,0.09613052590743913,9.874177233813386e-36,0.13011369150078056
133.5,0.13406989444310438,0.1342075058477553,0.0012711010933289246,0.04045327031177102,5.357204129865992e-14,0.09248313444260176,6.356570484246149e-35,0.13293640475442636
134.0,0.13748920013982918,0.1376268115444801,0.001023051078342524,0.047678409717651644,2.2698874993379716e-13,0.08892535074825893,3.9440090882174724e-34,0.13660376046613756
134.5,0.1419981663706054,0.1421357777752563,0.0010278063288186035,0.05564910007230294,9.155585561227285e-13,0.08545887137321918,2.360126867079362e-33,0.1411079714464377
135.0,0.14674185048693775,0.14687946189158865,0.00045895232960288523,0.06433551468156742,3.51889484961593e-12,0.08208499487689944,1.3630085542617365e-32,0.14642050956198577
135.5,0.15260538378042884,0.15274299518507975,0.0002522158213837111,0.07368613085933728,1.2899669423096141e-11,0.07880464849145907,7.60160348250028e-32,0.15249077936369604
136.0,0.15886362460690995,0.15900123601156085,-0.0002443290283932198,0.08362715064882709,4.5144828561978954e-11,0.07561841434598215,4.0966343383821534e-31,0.15924556503995407
136.5,0.1659267413026397,0.1660643527072906,-0.0005249897665360881,0.09406278719739443,1.5097013445191196e-10,0.07252655512546213,2.1346712167843045e-30,0.1665893424738267
137.0,0.17383367075936396,0.17397128216401486,-0.00043422231408246637,0.10487646493949232,4.828539821238273e-10,0.06952903905575102,1.0761619972619886e-29,0.17440550447809733
137.5,0.18255358269255184,0.18269119409720275,0.00013269575748153795,0.1159329327386035,1.4782991695137745e-09,0.06662556412281856,5.25197889170388e-29,0.1825584983397212
138.0,0.19105354786558912,0.19119115927024002,0.0002943352333418525,0.12708123825014384,4.336133467493626e-09,0.06381558145062084,2.4826621006859218e-28,0.19089682403689817
138.5,0.20017596002031812,0.20031357142496903,0.001056778872725317,0.13815846258011988,1.2195540094643998e-08,0.06109831777658374,1.1373842707655469e-27,0.1992567925522437
139.0,0.20890116127767927,0.20903877268233018,0.001571872475101127,0.14899407031349604,3.291654493761349e-08,0.05847279697718807,5.052804736586644e-27,0.20746690020722905
139.5,0.21658914981365007,0.21672676121830098,0.0013741210252198044,0.15941469425666324,8.532800245539479e-08,0.0559378606084155,2.177857435826139e-26,0.21535264019308117
140.0,0.22383137719184987,0.22396898859650077,0.0012274393434230646,0.16924914921035217,2.1260581605504964e-07,0.05349218743690947,9.112326441059536e-26,0.2227415492530777
140.5,0.23013796475198053,0.23027557615663144,0.0008072982929717976,0.17833345635053252,5.095654446184627e-07,0.05113431194768251,3.703042209977364e-25,0.22946827786365964
141.0,0.23472383750416165,0.23486144890881255,-0.000518028593581743,0.18651565998556033,1.1756937520346327e-06,0.04886264182308193,1.4623112879787976e-24,0.2353794775023943
141.5,0.2389902720202388,0.2391278834248897,-0.00121043546441027,0.19366023125383502,2.613239873000912e-06,0.04667547439559196,5.614235346489401e-24,0.24033831888929996
142.0,0.24213076461447744,0.24226837601912835,-0.0019601133400936332,0.19965187750771227,5.599767564720646e-06,0.04457101208394499,2.0966433881093543e-23,0.24422848935922198
142.5,0.24481820869113988,0.24495582009579078,-0.0020017428885331368,0.20439860972258309,1.1576433750098766e-05,0.042547376827990716,7.619931736920177e-23,0.24695756298432392
143.0,0.24647850618628175,0.24661611759093266,-0.0018435711531471777,0.20783396074379604,2.3104457360438206e-05,0.04060262354292334,2.696344939172365e-22,0.24845968874407984
143.5,0.24726083394625553,0.24739844535090644,-0.001299147021425473,0.20991829167996537,4.454807456225057e-05,0.0387347526178043,9.293921171310288e-22,0.2486975923723319
144.0,0.2466110082421351,0.24674861964678602,-0.0009153067523318958,0.21063916932147198,8.303559068261212e-05,0.036941721486963314,3.121900725085821e-21,0.2476639263991179
144.5,0.2447794516228937,0.2449170630275446,-0.0004649556831251844,0.21001084129748018,0.00014972210737319681,0.03522145530581641,1.0224200304866103e-20,0.24538201871066978
145.0,0.2418010204681246,0.2419386318727755,3.258001316325254e-05,0.20807287530505447,0.0002613197895450024,0.03357185676501278,3.2660258762965236e-20,0.24190605185961225
145.5,0.2376946926643712,0.23783230406902212,0.0005116568647223485,0.2048880621533016,0.0004417699723604378,0.031990815078637706,1.0180664110410347e-19,0.23732064720429977
146.0,0.23206339460018288,0.2322010060048338,0.000461273061966333,0.20053970814552444,0.0007238106138167865,0.03047621418352623,3.0980002401492905e-19,0.23173973294286745
146.5,0.22575075351611065,0.22588836492076156,0.0005839049235728533,0.1951284596749588,0.0011500601345965072,0.02902594018763341,9.206928663070356e-19,0.2253044599971887
147.0,0.21852123388817288,0.21865884529282378,0.0004790188904285897,0.18876881164629372,0.0017731266502003262,0.027637888105901134,2.67332543034495e-18,0.2181798264023952
147.5,0.21078492049081235,0.21092253189546326,0.0003729086603811993,0.18158545182211175,0.002654203490751108,0.026309967922219197,7.586910974242721e-18,0.21054962323508206
148.0,0.20277758155553924,0.20291519296019014,0.0003058231492413521,0.17370958626196864,0.003859673533048989,0.025040110015931125,2.1053454746985e-17,0.2026093698109488
148.5,0.1946142548799386,0.19475186628458951,0.00019476839293852688,0.1652753778562997,0.005455450044425597,0.02382626999092562,5.714692932628499e-17,0.194557097891651
149.0,0.18684817932164935,0.18698579072630025,0.00040360981729789525,0.15641661197191087,0.007499135992362955,0.022666432944728386,1.5178762460170685e-16,0.18658218090900236
149.5,0.17976029765194423,0.17989790905659514,0.0010450583372764166,0.14726368194202685,0.010030551563108257,0.021558617214183236,3.946512629264769e-16,0.17885285071931872
150.0,0.17264762041081233,0.17278523181546324,0.0012817091049686646,0.13794096406824424,0.013061681008910479,0.020500877633338854,1.0048032509151627e-15,0.17150352271049457
150.5,0.16606849339744084,0.16620610480209175,0.0015826571013764223,0.12856462836951274,0.016567510993157078,0.019491308338042985,2.5060675419269515e-15,0.16462344770071533
151.0,0.15945804674174735,0.15959565814639826,0.0013472543333709897,0.1192409087546081,0.020479449907875764,0.018528045150537263,6.124909158080284e-15,0.15824840381302727
151.5,0.152915331720418,0.1530529431250689,0.0006959080774246729,0.11006483562315213,0.024682931848428083,0.017609267576049338,1.4674043378996487e-14,0.15235703504764422
152.0,0.14686456866275768,0.1470021800674086,0.000129185658837766,0.1011194158761546,0.02902037809035897,0.016733200442022797,3.447375494408519e-14,0.14687299440857082
152.5,0.14114825508735887,0.14128586649200978,-0.00038742963809701436,0.09247523044051047,0.03329995048028548,0.015898115209231404,7.944356310660108e-14,0.1416732961301068
153.0,0.13561055470353664,0.13574816610818755,-0.0008541766049236232,0.0841904079349438,0.03730960379539214,0.015102330982595594,1.7963883327737898e-13,0.13660234271311117
153.5,0.13036848811657337,0.13050609952122427,-0.0009840469117103345,0.07631092505798392,0.040835006126464665,0.0143442152480873,3.9870400707024964e-13,0.1314901464329346
154.0,0.12456093421347388,0.12469854561812478,-0.001473963155332117,0.0688711795055999,0.043679144906315706,0.013622184360672421,8.688499703603069e-13,0.1261725087734569
154.5,0.11927089878150655,0.11940851018615746,-0.0011020116428837878,0.061894779426076546,0.045681038594289715,0.012934703806815419,1.8595817573304813e-12,0.12051052182904125
155.0,0.11323778485865887,0.11337539626330978,-0.0010314107465539818,0.0553954941891913,0.046731024553094525,0.012280288263667814,3.910138319260019e-12,0.11440680700986376
155.5,0.10668987006294749,0.10682748146759839,-0.000988923361114849,0.049378314121046714,0.04678058922390081,0.01165750147568586,8.079844685809557e-12,0.10781640482871324
156.0,0.10000913178204712,0.10014674318669803,-0.0006043320022589144,0.04384057134634233,0.045845547858121144,0.011064955968081016,1.6412446523675455e-11,0.10075107518895694
156.5,0.09310819282368499,0.0932458042283359,-3.09856139954906e-05,0.03877307950505037,0.044002397689294336,0.01050131261520537,3.278129855491988e-11,0.09327678984233138
157.0,0.08601612006405883,0.08615373146870973,0.000648532808717614,0.03416125642127883,0.041378662093597446,0.009965280080716357,6.439948177942565e-11,0.08550519865999212
157.5,0.07846661730540344,0.07860422871005435,0.0010235802518047815,0.02998620039967669,0.03813883378894974,0.00945561414515428,1.2446884948355742e-10,0.07758064845824957
158.0,0.07130028521188417,0.07143789661653507,0.001773093384494745,0.026225697371919238,0.03446798868797258,0.008971116935405254,2.367432571107043e-10,0.06966480323204033
158.5,0.06389885904654946,0.06403647045120037,0.0021154594177707833,0.022855142342703458,0.030555232178063278,0.00851063606941395,4.4324890131823665e-10,0.061921011033429584
159.0,0.055945461815707594,0.0560830732203585,0.0015827568476559084,0.019848364289142002,0.02657888753799361,0.00807306372845187,8.171151077623808e-10,0.05450031637270259
159.5,0.04932892882301896,0.049466540227669865,0.001936021017886036,0.017178348711807213,0.022694833346206644,0.007657335668245397,1.483524576080551e-09,0.04753051920978383
160.0,0.0422934863805028,0.04243109778515371,0.0013220420250775328,0.01481785634025695,0.01902876658717677,0.007262430179316375,2.6533260763226684e-09,0.041109055760076174
160.5,0.03618385377679285,0.03632146518144375,0.001021617559549881,0.01273994003103925,0.015672535908833135,0.006887367005990338,4.6760311522908635e-09,0.03529984762189387
161.0,0.02928358609106568,0.029421197495716585,-0.0007125385188723292,0.010918364673080078,0.01268415698688674,0.006531206232683822,8.121938274658093e-09,0.030133736014588915
161.5,0.02376456626423715,0.023902177668888056,-0.0017095731105676928,0.009327936976662676,0.010090752750289431,0.0061930471452854375,1.3907218205544367e-08,0.02561175077945575
162.0,0.019695332539965277,0.019832943944616183,-0.0018773368344429456,0.007944753433244644,0.007893476789919933,0.005872027074704007,2.3481190539775932e-08,0.021710280779059128
162.5,0.01584528499648796,0.015982896401138865,-0.002404302258370728,0.0067463755738289,0.00607346375477299,0.00556732022895884,3.910194886313737e-08,0.018387198659509593
163.0,0.012508747292919504,0.01264635869757041,-0.0029417504631693483,0.005711942010772536,0.004597966395300578,0.005278136519539673,6.42351269717801e-08,0.015588109160739758
163.5,0.010328815200223362,0.010466426604874268,-0.002785659052035972,0.0048222267106196514,0.0034260344381137997,0.005003720387159608,1.0412101718072802e-07,0.01325208565691024
164.0,0.007931364844576735,0.00806897624922764,-0.0032475083895469794,0.004059652599774748,0.002513315840172319,0.004743349631462668,1.665673648861892e-07,0.01131648463877462
164.5,0.006413606235500147,0.006551217640151053,-0.0031694243638764373,0.003408269030376216,0.0018157756862803725,0.004496334248729862,2.63038641039737e-07,0.00972064200402749
165.0,0.0050851098492447405,0.005222721253895646,-0.003185710189787358,0.0028537009018995683,0.0012923051338543622,0.004262015281146052,4.101267830234018e-07,0.008408431443683004
165.5,0.004197325009783177,0.004334936414434083,-0.0029948546000034765,0.002383076406457616,0.0009063194249909079,0.004039763680748286,6.315022407501619e-07,0.007329791014437559
166.0,0.0031600603317813543,0.0032976717364322605,-0.0031437262511220944,0.0019849394938685878,0.0006265188467646148,0.003828979190768584,9.604561525681329e-07,0.006441397987554355
166.5,0.0020556303663750537,0.00219324177102596,-0.003513459395188627,0.0016491522776762733,0.00042701648923021966,0.003629089246710599,1.4431525974952942e-06,0.005706701166214587
167.0,0.0016848815137449824,0.0018224929183958886,-0.0032730223016062625,0.0013667917572633313,0.0002870328519314528,0.003439547899157749,2.142711649618784e-06,0.005095515220002151
167.5,0.0010321336507950283,0.0011697450554459345,-0.0034136103059170023,0.0011300444372354577,0.00019033192758995877,0.0032598347599972987,3.14423654022169e-06,0.004583355361362937
168.0,0.000752622241578649,0.0008902336462295553,-0.0032604201507821892,0.0009321016990872499,0.00012453724591525613,0.0030894539734610065,4.560878548231875e-06,0.004150653797011745
168.5,0.0007093313309589072,0.0008469427356098135,-0.002935017527904216,0.000767058131138738,8.042792097251756e-05,0.0029279332131238564,6.540998278917038e-06,0.003781960263514029
169.0,2.8855495305508167e-05,0.0001664668999564144,-0.0032987263050034722,0.0006298144550196302,5.1279615023791025e-05,0.0027748227057684464,9.276429148018761e-06,0.0034651932049598864
169.5,0.0001095619341267382,0.00024717333877764445,-0.0029438054490959946,0.0005159862006493352,3.2286528027337595e-05,0.0026296942828111826,1.3011776385784252e-05,0.0031909787878736393
170.0,-8.430559724736726e-05,5.330580740353897e-05,-0.0028987871603945257,0.0004218188737217542,2.0079042050732832e-05,0.002492140459795529,1.805459223004901e-05,0.0029520929677980647
170.5,-0.00013761140465090623,0.0,-0.002743006855699723,0.00034411002498284566,1.2337129962099714e-05,0.002361773544287292,2.478615646748539e-05,0.002743006855699723
171.0,0.0004110240294507964,0.0005486354341017026,-0.0020108911232142763,0.0002801383624922858,7.490957919077281e-06,0.0022382247723536537,3.36724645509621e-05,0.002559526557315979
171.5,0.00017776740608423957,0.0003153788107351458,-0.00208313525711203,0.00022759983920510868,4.495865913043502e-06,0.002121143473672013,4.527488905701064e-05,0.002398514067847176
172.0,0.00010420896279592782,0.00024182036744683404,-0.0020158539560240574,0.00018455049091175598,2.6677246955790514e-06,0.0020101962651939446,6.025984266961147e-05,0.0022576743234708914
172.5,0.00028274635215825574,0.000420357756809162,-0.001715036217158804,0.00014935568623795616,1.5653715797628449e-06,0.0019050662731833737,7.940664296687288e-05,0.002135393973967966
173.0,0.0006453062625958189,0.0007829176672467252,-0.0012477012910084568,0.00012064537378990862,9.085273819397703e-07,0.001805452383354786,0.00010361267372854738,0.002030618958255182
173.5,0.00021323323662887213,0.00035084464127977836,-0.001591915281140693,9.727486494348457e-05,5.216706342520833e-07,0.0017110685187558413,0.0001338948680868932,0.0019427599224204712
