wavelength,absorbance,absorbance_bk,residual_3gauss,Gauss_1,Gauss_2,Gauss_3,Gauss_4,Gauss_fit
117.0,0.2178440428505201,0.217981654255171,-0.003048168394681111,1.4645317019110887e-07,4.282902028192533e-50,0.2210296761966819,3.6272100546513903e-72,0.2210298226498521
117.5,0.21706006256977367,0.21719767397442458,-0.0015900406575665438,2.7663368731005195e-07,1.8882356246228243e-48,0.2187874379983038,1.195989328464239e-70,0.21878771463199112
118.0,0.2154349351507029,0.2155725465553538,-0.0007128733797058528,5.122871657377254e-07,7.553856790903576e-47,0.2162849076478939,3.6847496092477e-69,0.21628541993505965
118.5,0.21330005634316823,0.21343766774781914,-0.0001021164698124799,9.304900029004663e-07,2.7476816428707395e-45,0.2135388537276287,1.0621776731847998e-67,0.21353978421763162
119.0,0.2118515431421244,0.2119891545467753,0.0014211784992229914,1.6583759936390696e-06,9.105815430675859e-44,0.21056631767155867,2.868560434036144e-66,0.2105679760475523
119.5,0.20902314325571,0.2091607546603609,0.0017733601118414544,2.9013907640298162e-06,2.75470648050858e-42,0.20738449315775542,7.267159386705349e-65,0.20738739454851945
120.0,0.2047457430024516,0.2048833544071025,0.0008677563798362153,4.984895021431879e-06,7.621936760372258e-41,0.20401061313224486,1.729190375170754e-63,0.2040155980272663
120.5,0.20359311887001263,0.20373073027466354,0.003260471378593144,8.414007550649988e-06,1.9324089683192475e-39,0.20046184488851976,3.8692759346632705e-62,0.2004702588960704
121.0,0.20161417570823512,0.20175178711288602,0.004982635933402119,1.3957684312740768e-05,4.497465358739209e-38,0.19675519349517115,8.151635262314632e-61,0.1967691511794839
121.5,0.19703163528653847,0.19716924669118938,0.004239068871328383,2.2764076653496123e-05,9.625976304913053e-37,0.1929074137432075,1.618809175118539e-59,0.192930177819861
122.0,0.19175923927798083,0.19189685068263174,0.0029254049748933253,3.651503323082453e-05,1.897951994180171e-35,0.1889349306745076,3.0337434703712253e-58,0.1889714457077384
122.5,0.1878429453034209,0.18798055670807182,0.0030691600667113184,5.762798742232614e-05,3.4532426026219066e-34,0.18485376865393818,5.371303406231479e-57,0.1849113966413605
123.0,0.18268093702635352,0.18281854843100442,0.002049546430849619,8.951314014544876e-05,5.807530015976823e-33,0.18067948886000937,8.994411238383835e-56,0.1807690020001548
123.5,0.17859013103812468,0.1787277424427756,0.0021637149337562223,0.00013689251652851205,9.042384574958112e-32,0.17642713499249085,1.4260085445165706e-54,0.17656402750901937
124.0,0.17322121999122783,0.17335883139587874,0.0010414596078928973,0.0002061848581045809,1.3055401656717959e-30,0.17211118692988125,2.1428004863609597e-53,0.17231737178798584
124.5,0.16725868684712605,0.16739629825177696,-0.0006551799354213017,0.0003059561726203359,1.750597360230024e-29,0.16774552201457793,3.0548894366378797e-52,0.16805147818719826
125.0,0.1617103605882007,0.1618479719928516,-0.0019428415693512613,0.00044742996360777864,2.183377768833544e-28,0.1633433835985951,4.1361628966873096e-51,0.16379081356220287
125.5,0.15709968743045835,0.15723729883510926,-0.0023251013313844437,0.0006450437194710949,2.5366531584241292e-27,0.1589173564470226,5.323691905250693e-50,0.1595624001664937
126.0,0.15221394121389378,0.1523515526185447,-0.0030448253325755514,0.000917029381607918,2.749232465452416e-26,0.15447934856951231,6.5201393339013156e-49,0.15539637795112024
126.5,0.1476167722242742,0.1477543836289251,-0.003572181104145644,0.0012859857018935406,2.78352114893525e-25,0.1500405790311772,7.605645387011755e-48,0.15132656473307074
127.0,0.14368325041643415,0.14382086182108506,-0.0035701098304374845,0.0017794003688791458,2.636398701443436e-24,0.1456115712826434,8.457622259403193e-47,0.14739097165152254
127.5,0.1396646126035903,0.13980222400824122,-0.0038299980322411276,0.0024300704965885666,2.3390990587189473e-23,0.1412021515438938,8.973931409584341e-46,0.14363222204048234
128.0,0.13615411845613495,0.13629172986078586,-0.0038060845977233027,0.0032763626813207625,1.9466216165800843e-22,0.1368214517771884,9.093275575809716e-45,0.14009781445850916
128.5,0.13396569905378197,0.13410331045843288,-0.0027368559130016012,0.004362249581355076,1.5214988280941857e-21,0.1324779167900794,8.807119120695106e-44,0.13684016637143448
129.0,0.13100538409217413,0.13114299549682504,-0.0027733795867171396,0.005737060063969386,1.1183255147927115e-20,0.1281793150195728,8.159961928024249e-43,0.13391637508354218
129.5,0.12951553597481316,0.12965314737946407,-0.001734490588490789,0.007454885405710032,7.739424906992372e-20,0.12393275256224483,7.238360948931624e-42,0.13138763796795486
130.0,0.12817247703488507,0.12831008843953598,-0.0010081970825869258,0.009573595490233958,5.049153181482017e-19,0.11974469003188895,6.152331527678786e-41,0.1293182855221229
130.5,0.12670126469109447,0.12683887609574537,-0.0009355223479317887,0.01215343659816659,3.108936723554089e-18,0.11562096184551057,5.014513448280421e-40,0.12777439844367716
131.0,0.12644930497607665,0.12658691638072755,-0.00023508698234236958,0.015255205803424267,1.8088043566559835e-17,0.11156679755964563,3.922314804511337e-39,0.12682200336306992
131.5,0.12647993373787952,0.12661754514253043,9.267513056071541e-05,0.018938025110422287,9.955192649708919e-17,0.10758684490154732,2.946515019417663e-38,0.12652487001196971
132.0,0.1272612423023393,0.1273988537069902,0.0004568899566355922,0.023256769587006513,5.188806141989294e-16,0.10368519416334757,2.1273971974078286e-37,0.1269419637503546
132.5,0.1288566028686082,0.1289942142732591,0.0008695749873829373,0.028259235634451634,2.56398739499405e-15,0.09986540365142196,1.4773271729440236e-36,0.12812463928587617
133.0,0.131165469171912,0.1313030805765629,0.0011893890822314013,0.03398316558677418,1.2024189779315247e-14,0.0961305259075453,9.874177243533941e-36,0.1301136914943315
133.5,0.13406989444310438,0.1342075058477553,0.0012711010999262584,0.04045327030507157,5.3572042534672116e-14,0.09248313444270388,6.356570490348092e-35,0.13293640474782903
134.0,0.13748920013982918,0.1376268115444801,0.0010230510849333907,0.04767840971096257,2.269887549074293e-13,0.08892535074835713,3.94400909190883e-34,0.1366037604595467
134.5,0.1419981663706054,0.1421357777752563,0.0010278063352303635,0.05564910006579682,9.155585751567182e-13,0.08545887137331355,2.3601268692327258e-33,0.14110797144002593
135.0,0.14674185048693775,0.14687946189158865,0.00045895233565126925,0.06433551467542842,3.5188949189578033e-12,0.08208499487699009,1.3630085554739186e-32,0.14642050955593738
135.5,0.15260538378042884,0.15274299518507975,0.0002522158268806751,0.0736861308537533,1.2899669663789828e-11,0.0788046484915461,7.601603489088953e-32,0.15249077935819907
136.0,0.15886362460690995,0.15900123601156085,-0.00024432902363041853,0.08362715064398078,4.5144829358727127e-11,0.07561841434606566,4.096634341842143e-31,0.15924556503519127
136.5,0.1659267413026397,0.1660643527072906,-0.0005249897626753153,0.09406278719345358,1.5097013696923394e-10,0.07252655512554222,2.134671218540926e-30,0.16658934246996593
137.0,0.17383367075936396,0.17397128216401486,-0.0004342223112671073,0.10487646493660017,4.828539897215186e-10,0.06952903905582779,1.0761619981246763e-29,0.17440550447528197
137.5,0.18255358269255184,0.18269119409720275,0.000132695759141932,0.1159329327368695,1.4782991914369853e-09,0.06662556412289214,5.251978895804665e-29,0.18255849833806082
138.0,0.19105354786558912,0.19119115927024002,0.0002943352337798355,0.12708123824963535,4.3361335280207915e-09,0.06381558145069131,2.4826621025737223e-28,0.1908968240364602
138.5,0.20017596002031812,0.20031357142496903,0.001056778871921904,0.13815846258085568,1.2195540254656989e-08,0.061098317776651215,1.137384271607657e-27,0.19925679255304712
139.0,0.20890116127767927,0.20903877268233018,0.001571872473090652,0.14899407031544154,3.2916545342975956e-08,0.05847279697725264,5.0528047402287896e-27,0.20746690020923952
139.5,0.21658914981365007,0.21672676121830098,0.001374121022091751,0.1594146942597285,8.53280034401547e-08,0.05593786060847727,2.1778574373541624e-26,0.21535264019620923
140.0,0.22383137719184987,0.22396898859650077,0.001227439339321651,0.16924914921439224,2.1260581835078056e-07,0.05349218743696855,9.11232644728178e-26,0.22274154925717912
140.5,0.23013796475198053,0.23027557615663144,0.0008072982880922008,0.1783334563553505,5.095654497578407e-07,0.05113431194773898,3.7030422124377685e-25,0.22946827786853924
141.0,0.23472383750416165,0.23486144890881255,-0.0005180285989993816,0.18651565999091296,1.1756937630902833e-06,0.048862641823135884,1.4623112889240275e-24,0.23537947750781194
141.5,0.2389902720202388,0.2391278834248897,-0.0012104354700902265,0.19366023125944054,2.613239895868347e-06,0.0466754743956435,5.61423535001932e-24,0.24033831889497992
142.0,0.24213076461447744,0.24226837601912835,-0.0019601133457363695,0.19965187751326027,5.599767610227246e-06,0.044571012083994214,2.0966433893913764e-23,0.24422848936486471
142.5,0.24481820869113988,0.24495582009579078,-0.0020017428938297888,0.20439860972774557,1.1576433837277222e-05,0.042547376828037706,7.619931741450469e-23,0.24695756298962057
143.0,0.24647850618628175,0.24661611759093266,-0.0018435711577963476,0.20783396074823954,2.3104457521304453e-05,0.04060262354296818,2.6963449407307306e-22,0.248459688748729
143.5,0.24726083394625553,0.24739844535090644,-0.001299147025151992,0.209918291683363,4.4548074848321423e-05,0.038734752617847076,9.29392117653086e-22,0.24869759237605843
144.0,0.2466110082421351,0.24674861964678602,-0.0009153067549067528,0.21063916932351553,8.303559117313085e-05,0.03694172148700411,3.1219007267898522e-21,0.24766392640169277
144.5,0.2447794516228937,0.2449170630275446,-0.0004649556843860647,0.2100108412978908,0.0001497221081845679,0.035221455305855305,1.022420031028791e-20,0.24538201871193066
145.0,0.2418010204681246,0.2419386318727755,3.258001329317639e-05,0.20807287530359223,0.00026131979084027747,0.033571856765049854,3.2660258779787385e-20,0.24190605185948233
145.5,0.2376946926643712,0.23783230406902212,0.0005116568662187349,0.2048880621497734,0.0004417699743569273,0.03199081507867303,1.0180664115502429e-19,0.23732064720280338
146.0,0.23206339460018288,0.2322010060048338,0.0004612730646952057,0.20053970813978952,0.0007238106167891782,0.030476214183559888,3.0980002416536526e-19,0.23173973294013858
146.5,0.22575075351611065,0.22588836492076156,0.0005839049272912678,0.19512845966693232,0.0011500601388725045,0.029025940187665463,9.206928667409867e-19,0.2253044599934703
147.0,0.21852123388817288,0.21865884529282378,0.00047901889479803894,0.188768811635948,0.0017731266561460853,0.027637888105931655,2.673325431567664e-18,0.21817982639802574
147.5,0.21078492049081235,0.21092253189546326,0.0003729086649949531,0.18158545180947522,0.00265420349874485,0.02630996792224825,7.586910977609125e-18,0.2105496232304683
148.0,0.20277758155553924,0.20291519296019014,0.00030582315366498025,0.1737095862471232,0.0038596735434431586,0.025040110015958777,2.1053454756045586e-17,0.20260936980652516
148.5,0.1946142548799386,0.19475186628458951,0.000194768396760997,0.1652753778393759,0.005455450057500623,0.023826269990951932,5.714692935013206e-17,0.19455709788782852
149.0,0.18684817932164935,0.18698579072630025,0.0004036098201861682,0.156416611953082,0.007499136008278525,0.022666432944753415,1.5178762466310774e-16,0.1865821809061141
149.5,0.17976029765194423,0.17989790905659514,0.0010450583390256007,0.14726368192150188,0.010030551581860234,0.021558617214207043,3.946512630811881e-16,0.17885285071756954
150.0,0.17264762041081233,0.17278523181546324,0.0012817091055380703,0.13794096404626008,0.013061681030302596,0.020500877633361492,1.0048032512967892e-15,0.17150352270992517
150.5,0.16606849339744084,0.16620610480209175,0.0015826571009031898,0.12856462834632615,0.016567511016795405,0.01949130833806451,2.5060675428488285e-15,0.16462344770118856
151.0,0.15945804674174735,0.15959565814639826,0.0013472543321557395,0.11924090873048773,0.02047944993319091,0.018528045150557722,6.124909160261856e-15,0.15824840381424252
151.5,0.152915331720418,0.1530529431250689,0.0006959080758894287,0.11006483559837077,0.024682931874725235,0.01760926757606878,1.4674043384055587e-14,0.15235703504917947
152.0,0.14686456866275768,0.1470021800674086,0.0001291856574605621,0.10111941585098205,0.02902037811689023,0.016733200442041275,3.447375495558609e-14,0.14687299440994803
152.5,0.14114825508735887,0.14128586649200978,-0.0003874296388598486,0.09247523041520711,0.033299950506334115,0.01589811520924896,7.944356313223859e-14,0.14167329613086962
153.0,0.13561055470353664,0.13574816610818755,-0.000854176604714707,0.0841904079097553,0.037309603820355045,0.015102330982612272,1.796388333334382e-13,0.13660234271290225
153.5,0.13036848811657337,0.13050609952122427,-0.0009840469103330196,0.07631092503313656,0.04083500614991888,0.014344215248103141,3.987040071905242e-13,0.1314901464315573
154.0,0.12456093421347388,0.12469854561812478,-0.0014739631527864588,0.06887117948129733,0.04367914492805759,0.013622184360687465,8.688499706135763e-13,0.12617250877091124
154.5,0.11927089878150655,0.11940851018615746,-0.0011020116393693768,0.06189477940249734,0.045681038614340204,0.012934703806829703,1.8595817578541092e-12,0.12051052182552684
155.0,0.11323778485865887,0.11337539626330978,-0.001031410742439745,0.055395494166487556,0.04673102457167046,0.012280288263681376,3.910138320323168e-12,0.11440680700574953
155.5,0.10668987006294749,0.10682748146759839,-0.0009889233568822348,0.04937831409934352,0.046780589241358535,0.011657501475698733,8.079844687930018e-12,0.10781640482448063
156.0,0.10000913178204712,0.10014674318669803,-0.0006043319984291723,0.04384057132573811,0.04584554787488341,0.011064955968093235,1.6412446527831224e-11,0.1007510751851272
156.5,0.09310819282368499,0.0932458042283359,-3.0985611053968576e-05,0.038773079485617784,0.044002397705773806,0.010501312615216966,3.278129856292514e-11,0.09327678983938986
157.0,0.08601612006405883,0.08615373146870973,0.0006485328103868898,0.03416125640306634,0.04137866211012966,0.00996528008072736,6.439948179458611e-11,0.08550519865832285
157.5,0.07846661730540344,0.07860422871005435,0.0010235802519649034,0.029986200382710458,0.03813883380574541,0.009455614145164723,1.244688495117924e-10,0.07758064845808944
158.0,0.07130028521188417,0.07143789661653507,0.0017730933830765183,0.026225697356205415,0.03446798870509471,0.00897111693541516,2.367432571624289e-10,0.06966480323345856
158.5,0.06389885904654946,0.06403647045120037,0.002115459414868029,0.02285514232823058,0.030555232195429508,0.00851063606942335,4.432489014114639e-10,0.06192101103633234
159.0,0.055945461815707594,0.0560830732203585,0.0015827568434990738,0.01984836427588355,0.02657888755539999,0.008073063728460785,8.171151079277498e-10,0.054500316376859426
159.5,0.04932892882301896,0.049466540227669865,0.0019360210128014227,0.017178348699724073,0.022694833363365936,0.007657335668253853,1.4835245763693018e-09,0.04753051921486844
160.0,0.0422934863805028,0.04243109778515371,0.0013220420194400007,0.014817856329299932,0.0190287666037633,0.007262430179324395,2.653326076819081e-09,0.041109055765713706
160.5,0.03618385377679285,0.03632146518144375,0.001021617553736906,0.01273994002115135,0.0156725359245264,0.006887367005997944,4.6760311531313336e-09,0.03529984762770685
161.0,0.02928358609106568,0.029421197495716585,-0.0007125385245191976,0.010918364664198635,0.012684157001407839,0.006531206232691034,8.121938276059788e-09,0.030133736020235783
161.5,0.02376456626423715,0.023902177668888056,-0.001709573115770191,0.00932793696872131,0.010090752763426455,0.006193047145292277,1.390721820784753e-08,0.025611750784658247
162.0,0.019695332539965277,0.019832943944616183,-0.0018773368390009836,0.007944753426174936,0.007893476801541198,0.005872027074710491,2.3481190543505253e-08,0.021710280783617166
162.5,0.01584528499648796,0.015982896401138865,-0.002404302262165651,0.006746375567561899,0.006073463764828759,0.005567320228964988,3.910194886908943e-08,0.018387198663304516
163.0,0.012508747292919504,0.01264635869757041,-0.0029417504661577026,0.005711942005239976,0.004597966403815652,0.005278136519545501,6.423512698114541e-08,0.015588109163728112
163.5,0.010328815200223362,0.010466426604874268,-0.0027856590542369233,0.004822226705754988,0.003426034445173875,0.005003720387165134,1.0412101719525829e-07,0.013252085659111191
164.0,0.007931364844576735,0.00806897624922764,-0.003247508391026381,0.004059652595513945,0.002513315845907264,0.004743349631467906,1.6656736490842262e-07,0.011316484640254022
164.5,0.006413606235500147,0.006551217640151053,-0.0031694243647303185,0.0034082690266583897,0.0018157756908470809,0.004496334248734827,2.6303864107329524e-07,0.009720642004881371
165.0,0.0050851098492447405,0.005222721253895646,-0.0031857101901267984,0.0028537008986674055,0.0012923051374212073,0.004262015281150758,4.101267830733744e-07,0.008408431444022445
165.5,0.004197325009783177,0.004334936414434083,-0.0029948545999422035,0.0023830764036576833,0.0009063194277250324,0.004039763680752747,6.315022408235916e-07,0.007329791014376286
166.0,0.0031600603317813543,0.0032976717364322605,-0.0031437262507673226,0.0019849394914514882,0.0006265188488226074,0.003828979190772812,9.604561526746242e-07,0.006441397987199583
166.5,0.0020556303663750537,0.00219324177102596,-0.0035134593946351176,0.0016491522755966918,0.00042701649075213186,0.0036290892467146065,1.443152597647735e-06,0.0057067011656610775
167.0,0.0016848815137449824,0.0018224929183958886,-0.0032730223009332566,0.0013667917554800056,0.000287032853037758,0.0034395478991615476,2.142711649834222e-06,0.005095515219329145
167.5,0.0010321336507950283,0.0011697450554459345,-0.003413610305187389,0.0011300444357110655,0.00019033192838083701,0.0032598347600008982,3.1442365405223194e-06,0.0045833553606333234
168.0,0.000752622241578649,0.0008902336462295553,-0.003260420150043288,0.0009321016977882422,0.00012453724647153733,0.0030894539734644183,4.560878548646154e-06,0.0041506537962728435
168.5,0.0007093313309589072,0.0008469427356098135,-0.002935017527189558,0.0007670581300351409,8.04279213576593e-05,0.00292793321312709,6.540998279480911e-06,0.0037819602627993712
169.0,2.8855495305508167e-05,0.0001664668999564144,-0.0032987263043350607,0.0006298144540848105,5.127961528637727e-05,0.0027748227057715104,9.276429148776886e-06,0.003465193204291475
169.5,0.0001095619341267382,0.00024717333877764445,-0.0029438054484866956,0.0005159861998597547,3.2286528203707405e-05,0.0026296942828140865,1.3011776386791231e-05,0.00319097878726434
170.0,-8.430559724736726e-05,5.330580740353897e-05,-0.0028987871598503035,0.0004218188730567114,2.0079042167479773e-05,0.0024921404597982805,1.8054592231370593e-05,0.0029520929672538425
170.5,-0.00013761140465090623,0.0,-0.002743006855221614,0.00034411002442422497,1.233713003828964e-05,0.0023617735442899,2.4786156469199318e-05,0.002743006855221614
171.0,0.0004110240294507964,0.0005486354341017026,-0.0020108911228,0.00028013836202430315,7.490957968115599e-06,0.0022382247723561253,3.367246455315874e-05,0.0025595265569017026
171.5,0.00017776740608423957,0.0003153788107351458,-0.0020831352567572577,0.00022759983881407212,4.4958659441828225e-06,0.002121143473674355,4.527488905979317e-05,0.0023985140674924036
172.0,0.00010420896279592782,0.00024182036744683404,-0.0020158539557233574,0.00018455049058583832,2.667724715093746e-06,0.002010196265196164,6.025984267309552e-05,0.0022576743231701914
172.5,0.00028274635215825574,0.000420357756809162,-0.001715036216906318,0.0001493556859669812,1.5653715918363216e-06,0.0019050662731854775,7.940664297118521e-05,0.00213539397371548
173.0,0.0006453062625958189,0.0007829176672467252,-0.0012477012907983497,0.00012064537356515434,9.085273893163448e-07,0.0018054523833567798,0.00010361267373382413,0.002030618958045075
173.5,0.00021323323662887213,0.00035084464127977836,-0.001591915280967436,9.727486475750259e-05,5.216706387041159e-07,0.0017110685187577308,0.00013389486809327664,0.0019427599222472142
