wavelength,absorbance,absorbance_bk,residual_3gauss,Gauss_1,Gauss_2,Gauss_3,Gauss_4,Gauss_fit
117.0,0.4791000188627941,0.48869725506966416,-0.010274613242662267,5.979684500143607e-07,1.9055458521296974e-57,0.4989712703438764,1.6902709633250878e-62,0.4989718683123264
117.5,0.4841331218010193,0.4937303580078894,-0.0008869674035657527,1.0985070013053455e-06,1.5488391304557988e-55,0.49461622690445384,3.312638580429372e-61,0.49461732541145514
118.0,0.4719522510421498,0.48154948724901986,-0.008104968006784785,1.9799866315389772e-06,1.124236487718844e-53,0.4896524752691731,6.13042099270731e-60,0.48965445525580464
118.5,0.4731032414046032,0.4827004776114733,-0.0014187742473765197,3.5029758652609486e-06,7.304841275130488e-52,0.48411574888298453,1.072497072470292e-58,0.4841192518588498
119.0,0.4696260263044429,0.479223262511313,0.0011745320583720908,6.0856051752638716e-06,4.258714609875231e-50,0.4780426448477656,1.775707211804e-57,0.4780487304529409
119.5,0.46244576841387536,0.47204300462074544,0.0005622692036548194,1.0385663146755302e-05,2.232801484993088e-48,0.47147034975394386,2.7853834112213536e-56,0.4714807354170906
120.0,0.45827523127595654,0.4678724674828266,0.0034186689253988822,1.7417929954559854e-05,1.0550950555787103e-46,0.46443638062747317,4.143767081083202e-55,0.46445379855742774
120.5,0.45093087337934495,0.46052810958621504,0.003521049371123963,2.871803645072615e-05,4.50346265152025e-45,0.45697834217864036,5.852621229002557e-54,0.4570070602150911
121.0,0.4449036253459296,0.4545008615527997,0.005320594298887593,4.656601000439034e-05,1.7399499845490402e-43,0.44913370124390767,7.855759364024122e-53,0.4491802672539121
121.5,0.43793552212159786,0.44753275832846795,0.006518895199421726,7.428409256082124e-05,6.097651539839731e-42,0.4409395790364854,1.0030826811263537e-51,0.4410138631290462
122.0,0.42814971191070367,0.43774694811757375,0.005197762559411234,0.000116623990848915,1.9422438486360466e-40,0.4324325615673136,1.219592329964381e-50,0.4325491855581625
122.5,0.41737022373238464,0.4269674599392547,0.0031386736068400034,0.00018025796554544367,5.634037087219325e-39,0.4236485283668693,1.4132900769800982e-49,0.4238287863324147
123.0,0.4090558337501298,0.4186530699569999,0.0037561849597547714,0.0002743855669812621,1.4912493078408552e-37,0.41462249943026386,1.5623805501740585e-48,0.41489688499724514
123.5,0.3981391282199692,0.4077363644268393,0.0019364014260079276,0.00041146287707577564,3.6084116234184644e-36,0.4053885001237556,1.6491972800400515e-47,0.4057999630008314
124.0,0.3873565082432501,0.39695374445012016,0.0003662474097042012,0.0006080534106000481,7.996853798511737e-35,0.3959794436298159,1.663686310418491e-46,0.39658749704041596
124.5,0.376700554628204,0.3862977908350741,-0.0010150286719203816,0.0008857891373514023,1.6260853272035874e-33,0.3864270303696431,1.6053055597770352e-45,0.3873128195069945
125.0,0.365627902609197,0.37522513881606706,-0.0028089413738235924,0.0012724164640565683,3.0391680813565797e-32,0.3767616637258341,1.4828513608572075e-44,0.37803408018989065
125.5,0.3560206066408002,0.3656178428476703,-0.0031974243268766966,0.0018028858820118827,5.230006073000368e-31,0.3670123812925351,1.3123492079654174e-43,0.368815267174547
126.0,0.34659423291202174,0.3561914691188918,-0.0035357578809735446,0.002520426195170127,8.300759211647578e-30,0.35720680080469525,1.1136880501960256e-42,0.35972722699986537
126.5,0.3365857251416504,0.3461829613485205,-0.004665644588991769,0.003477526096914487,1.2170748071793673e-28,0.3473710798405978,9.069491814928566e-42,0.35084860593751227
127.0,0.32922085679257584,0.33881809299944593,-0.0034485244345223154,0.004736729082824786,1.6512023045009247e-27,0.33752988835114345,7.093214641778306e-41,0.34226661743396825
127.5,0.3209297553153912,0.3305269915222613,-0.0035505358318203006,0.006371134310131662,2.0761131557401823e-26,0.32770639304394994,5.331781102146546e-40,0.3340775273540816
128.0,0.31368178036187433,0.3232790165687444,-0.0031077243037060387,0.008464488233881129,2.4229166592271124e-25,0.3179222526385693,3.854711341348589e-39,0.32638674087245045
128.5,0.3075200092912266,0.31711724549809667,-0.002191129298411254,0.011110751786927296,2.6285537965500483e-24,0.30819762300958065,2.6823545619614803e-38,0.3193083747965079
129.0,0.30298729329436447,0.31258452950123455,-0.0003796790611816925,0.01441303731707981,2.6547645319056887e-23,0.2985511712453364,1.7978482217497058e-37,0.31296420856241625
129.5,0.29852605565934626,0.30812329186621634,0.0006413645557466485,0.018481829640036602,2.4997215831935237e-22,0.2890000976704331,1.1614582789524342e-36,0.3074819273104697
130.0,0.29517781786928554,0.3047750540761556,0.0017824524146868859,0.023432436753473347,2.1974845032024093e-21,0.2795601649079954,7.23707078740892e-36,0.30299260166146874
130.5,0.29261808395940864,0.3022153201662787,0.002587929779124698,0.029381657294764413,1.806039481054227e-20,0.2702457330923896,4.352304870665866e-35,0.299627390387154
131.0,0.29099410121508373,0.3005913374219538,0.0030778351433692896,0.036443701895811836,1.3895736051196594e-19,0.26106980038277267,2.527875556404438e-34,0.29751350227858453
131.5,0.29089178524907294,0.30048902145594303,0.003719512206665665,0.044725461277517004,1.0022168944625114e-18,0.2520440479717604,1.4188897997183945e-33,0.29676950924927736
132.0,0.2922272484403268,0.3018244846471969,0.0043243244432638606,0.05432127137341965,6.784663035125999e-18,0.24317888883051342,7.701391023513316e-33,0.29750016020393305
132.5,0.2944279420591912,0.3040251782660613,0.004234278333059727,0.06530738045234005,4.3164797403690087e-17,0.23448351948066146,4.0446646864667014e-32,0.29979089993300156
133.0,0.29829595320502245,0.30789318941189253,0.004190844961175777,0.0777363703167639,2.5840603553796864e-16,0.2259659741339526,2.056593835439229e-31,0.30370234445071675
133.5,0.3029802554033853,0.3125774916102554,0.0033124924711868675,0.09163181854750727,1.457378215225249e-15,0.21763318059155978,1.0130284642004851e-30,0.3092649991390685
134.0,0.3093730993698328,0.3189703355767029,0.0024958107894838544,0.1069835074412827,7.752691236194473e-15,0.20949101734592862,4.83672170317316e-30,0.31647452478721905
134.5,0.31727802588724063,0.3268752620941107,0.0015874059046147582,0.12374348481104919,3.8944511143797155e-14,0.20154437137840783,2.2396543221991034e-29,0.32528785618949596
135.0,0.3257651491726598,0.3353623853795299,-0.0002580714899467207,0.141823260674173,1.84946384079903e-13,0.1937971961951187,1.0063532354072074e-28,0.3356204568694766
135.5,0.336588154324118,0.34618539053098807,-0.001159561328474945,0.16109238216734814,8.312527177597759e-13,0.18625256969128365,4.390295068723281e-28,0.347344951859463
136.0,0.3483175848705144,0.3579148210773845,-0.0023764990425150234,0.1813785686362253,3.5398070881003465e-12,0.1789127514801344,1.8605453867117392e-27,0.3602913201198995
136.5,0.3616047362060997,0.37120197241296976,-0.0030467801640811087,0.2024695131963906,1.4297071391983642e-11,0.17177923936636322,7.66328477554546e-27,0.37424875257705087
137.0,0.3765862267013672,0.3861834629082373,-0.0027857327765253292,0.22411637094428563,5.482612291097562e-11,0.16485282468565085,3.0692912332397054e-26,0.3889691956847626
137.5,0.39271776809964015,0.40231500430651024,-0.0018575053256842389,0.2460388631614307,1.998220674563927e-10,0.1581336462709417,1.1959844661427244e-25,0.4041725096321945
138.0,0.4091299389025288,0.4187271751093989,-0.0008259059492888299,0.2679318375230473,6.928641241557454e-10,0.15162124284277637,4.536164763057966e-25,0.4195530810586877
138.5,0.4256310916011004,0.4352283278079705,0.00044067920852841613,0.2894730426565526,2.2878398967964397e-09,0.14531460365504958,1.6754645698090108e-24,0.4347876485994421
139.0,0.4415730573120719,0.451170293518942,0.0016262620715164489,0.31033180698739354,7.200978307997074e-09,0.1392122172590537,6.029315252228863e-24,0.44954403144742555
139.5,0.45626994547883887,0.46586718168570895,0.0023767805592690427,0.3301782612240362,2.162481836574054e-08,0.13331211827758535,2.1148822005122285e-23,0.4634904011264399
140.0,0.46882740387119193,0.478424640078062,0.002119931695089672,0.348692714259245,6.201644736626889e-08,0.12761193210728,7.234108205576499e-23,0.47630470838297234
140.5,0.4792436160736211,0.4888408522804912,0.0011569794937852929,0.3655747852969926,1.6999842076332619e-07,0.12210891749129248,2.414102869777808e-22,0.4876838727867059
141.0,0.48703830605536313,0.4966355422622332,-0.0007168210605848491,0.38055191058808097,4.458087476071592e-07,0.11680000692598952,7.862959738088979e-22,0.49735236332281807
141.5,0.49340107223863006,0.5029983084455001,-0.0020715354787291806,0.39338687962171803,1.1194178967573471e-06,0.11168184488461443,2.5006891428383104e-21,0.5050698439242293
142.0,0.4976565022368412,0.5072537384437112,-0.003383889017032682,0.40388410994464274,2.6936580926721937e-06,0.10675082385800846,7.768854888978256e-21,0.5106376274607439
142.5,0.5013378153235187,0.5109350515303888,-0.00296872123667713,0.4118944378615379,6.216678005922548e-06,0.10200311822752203,2.3586022085651906e-20,0.5139037727670659
143.0,0.5024505562576485,0.5120477924645185,-0.002718974677274999,0.41731827930999277,1.3771833375169848e-05,0.09743471599842554,7.000452066569118e-20,0.5147667671417935
143.5,0.5019960791774406,0.5115933153843106,-0.0015845372278797676,0.4201070961045737,2.930807418571655e-05,0.09304144843343101,2.0320814145719322e-19,0.5131778526121904
144.0,0.49886691401433875,0.5084641502212088,-0.0006780128208153657,0.4202631825087223,5.996289765617939e-05,0.0888190176356457,5.771203667678108e-19,0.5091421630420242
144.5,0.49307214135924904,0.5026693775661191,-4.9540141069059906e-05,0.4178378611700221,0.00011803439879432494,0.08476302213837171,1.6042254708732584e-18,0.5027189177071881
145.0,0.4850794649444742,0.49467670115134427,0.0006557665006811098,0.4129282420243532,0.00022371206041536777,0.08086898056589459,4.3661475337058395e-18,0.49402093465066316
145.5,0.474962326208034,0.4845595624149041,0.001345911415066292,0.40567274994863683,0.0004085476163951127,0.07713235343480586,1.1639185883978438e-17,0.4832136509998378
146.0,0.4622703396164945,0.4718675758233646,0.0013539323985264917,0.3962456648690372,0.0007194153861623305,0.07354856316963854,3.0401302907241355e-17,0.4705136434248381
146.5,0.4478344662125937,0.4574317024194638,0.001245370967166759,0.38485094091690375,0.0012223781256180787,0.07011301240977512,7.783204408670171e-17,0.45618633145229703
147.0,0.43166202150650784,0.44125925771337793,0.0007170938437076613,0.3717155792682748,0.0020054839145977423,0.06682110068679749,1.953753175378992e-16,0.44054216386967027
147.5,0.414608147569808,0.4242053837766781,0.00027515201134648004,0.3570828235725892,0.0031791686399139244,0.06366823955282801,4.81029304393416e-16,0.4239302317653316
148.0,0.39669752334496405,0.40629475955183414,-0.0004333056800349122,0.34120542913541974,0.004872769855420333,0.06064986624102779,1.1620016642101803e-15,0.40672806523186905
148.5,0.37959181422142174,0.3891890504282918,-0.00013746393992708494,0.32433922952674243,0.007225828902101115,0.057761455939372604,2.754960956887711e-15,0.3893265143682189
149.0,0.36328221321200377,0.37287944941887385,0.0007702390507552948,0.3067371895861893,0.010373488023702694,0.054998532758220135,6.412613968133098e-15,0.37210921036811856
149.5,0.3481629215393256,0.3577601577461957,0.0023329898541578076,0.2886440945240025,0.014426393896962538,0.05235667947105814,1.465887294734845e-14,0.3554271678920379
150.0,0.3330108460963034,0.34260808230317347,0.0030375911087893726,0.2702919835180539,0.01944696156999651,0.049831546106300764,3.291882011087951e-14,0.3395704911943841
150.5,0.3182617745235973,0.32785901073046736,0.003118424072974968,0.25189639519799323,0.02542533399333327,0.04741885746609325,7.264337696558144e-14,0.3247405866574924
151.0,0.3045446632110175,0.31414189941788756,0.0031145454547685802,0.2336534536639689,0.032259480653084975,0.045114419645907525,1.5757355855638333e-13,0.311027353963119
151.5,0.2905514479967788,0.3001486842036489,0.0017525714431627648,0.21573778877895683,0.03974419835491648,0.042914125626276715,3.36071215216023e-13,0.2983961127604861
152.0,0.2773390048389049,0.286936241045775,0.0002480006653350908,0.1983012545332522,0.04757302584109047,0.04081396000539231,7.049571655511297e-13,0.2866882403804399
152.5,0.2653488486190648,0.2749460848259349,-0.000691538547455961,0.1814723850052997,0.05535523542810602,0.03881000293853037,1.4547825979346616e-12,0.27563762337339087
153.0,0.2537930200341446,0.2633902562410147,-0.0015120914932230112,0.165356509127726,0.06264740525616927,0.03689843334738812,2.9543076264934407e-12,0.2649023477342377
153.5,0.24242384531788036,0.25202108152475045,-0.002087045167157686,0.15003643304996186,0.06899616217656492,0.035075531459475874,5.905432430351786e-12,0.25410812669190813
154.0,0.23063288321082925,0.2402301194176993,-0.0026673627378235587,0.1355735920159885,0.07398620939318806,0.0333376807347238,1.162251343679671e-11,0.24289748215552287
154.5,0.2186426685711323,0.22823990477800235,-0.0027373837299880244,0.12200957177305051,0.07728634747894945,0.031681369233462944,2.252748350979673e-11,0.23097728850799037
155.0,0.20596260375069608,0.21555983995756614,-0.002597501366438021,0.10936790186930559,0.07868624893472567,0.03010319047695993,4.301297113758809e-11,0.21815734132400416
155.5,0.19298947622050427,0.20258671242737433,-0.0017874383532764104,0.09765602897550198,0.07811827787549813,0.02859984384872836,8.092229900377229e-11,0.20437415078065074
156.0,0.17923225182348052,0.18882948803035057,-0.0008673419314549347,0.08686738674306356,0.07566130848675787,0.027168134581937904,1.5004616586649862e-10,0.1896968299618055
156.5,0.16532704409264734,0.1749242802995174,0.0006091480153282147,0.07698348887748271,0.07152666975703861,0.02580497337540089,2.742669692956236e-10,0.17431513228418918
157.0,0.1511260058593821,0.16072324206625216,0.0022105647845823417,0.06797598331313362,0.0660293177963531,0.02450737567785401,4.943290650735203e-10,0.15851267728166982
157.5,0.1358380262345918,0.14543526244146185,0.0028046865154113254,0.05980861696437289,0.05954949740537884,0.023272460677573565,8.78725235874501e-10,0.14263057592605052
158.0,0.12125525172075832,0.13085248792762838,0.0038248307114656377,0.05243907194514111,0.052491133698313576,0.022097450031778283,1.540929764368508e-09,0.12702765721616274
158.5,0.10670043117591713,0.11629766738278718,0.004254419131925258,0.04582064495567144,0.04524293426114011,0.020979666367792846,2.6662575379648748e-09,0.11204324825086193
159.0,0.09240110706153824,0.1019983432684083,0.004031149121920499,0.03990375140372393,0.038146906604117785,0.019916531585560202,4.553085882287523e-09,0.0979671941464878
159.5,0.07854784339207944,0.0881450795989495,0.0031251485554269903,0.03463724453896021,0.03147711384057945,0.018905564988823953,7.67515889363261e-09,0.08501993104352251
160.0,0.0652966030622068,0.07489383926907686,0.0015504278535409116,0.029969547307854175,0.025429470063210287,0.01794438127013566,1.2774335831886023e-08,0.07334341141553595
160.5,0.0535500925303216,0.06314732873719166,0.0001453974384631601,0.025849600740050174,0.020121621189302063,0.01703068837278886,2.0996587392768566e-08,0.0630019312987285
161.0,0.042023809572129686,0.051621045778999744,-0.002369643758777726,0.022227637479044247,0.015600732719465368,0.01616228525084214,3.4088425723078245e-08,0.05399068953777747
161.5,0.032447811389099225,0.04204504759596929,-0.0042042707674496,0.019055792645484588,0.011856411494986065,0.015337059546552482,5.467639574959532e-08,0.04624931836341889
162.0,0.024275507954710108,0.03387274416158017,-0.0058048691091144924,0.016288566682222033,0.008835974726818567,0.014552985202820362,8.665883370235679e-08,0.03967761327069466
162.5,0.017180412110799494,0.026777648317669555,-0.007373461292554655,0.013883156311756805,0.00645969752503085,0.013808120026619018,1.35746817536244e-07,0.03415110961022421
163.0,0.011793553089920705,0.021390789296790766,-0.008144024465171023,0.011799670386528448,0.004634329957581072,0.013100603217864102,2.101999881697287e-07,0.02953481376196179
163.5,0.007177295482152846,0.016774531689022907,-0.008919586455562747,0.01000124738068797,0.0032638960746840884,0.01242865287675775,3.218124558458562e-07,0.025694118144585654
164.0,0.003652701314441972,0.013249937521312033,-0.009252637157148675,0.008454090704011012,0.0022574332592584854,0.011790563501313,4.872138782107212e-07,0.02250257467846071
164.5,0.0012364204465418035,0.010833656653411865,-0.0090130338257515,0.007127437049701594,0.001533820383592195,0.011184703485535182,7.295603343960112e-07,0.019846690479163365
165.0,-0.0014090688916493352,0.008188167315220726,-0.0094400488457258,0.005993471739281692,0.0010241510961814125,0.010609512627587064,1.0806978963568028e-06,0.017628216160946526
165.5,-0.002951840920903407,0.006645395285966654,-0.009119140162932093,0.005027203604899949,0.0006722483001686949,0.010063499656206397,1.583887623706915e-06,0.015764535448898748
166.0,-0.0046146439114708076,0.004982592295399254,-0.009205180491055759,0.0042063104405799185,0.0004339253805743977,0.009545239782661703,2.297182638995015e-06,0.014187772786455013
166.5,-0.005341133574902562,0.0042561026319674995,-0.008587056675197515,0.003510964530799136,0.00027552494740858434,0.009053372284628049,3.297544329246083e-06,0.012843159307165015
167.0,-0.006334496048349064,0.0032627401585209976,-0.008424339470236963,0.0029236462830795652,0.00017214944434820964,0.008586598127532713,4.68577379747553e-06,0.011687079628757962
167.5,-0.007024006892894744,0.002573229313975317,-0.008111866142625396,0.002428952592246074,0.00010587292151173573,0.008143677628154464,6.592314688439773e-06,0.010685095456600714
168.0,-0.007418570312754328,0.0021786658941157335,-0.007631462420279562,0.002013405276213908,6.411092078153959e-05,0.0077234281645624445,9.18395283740335e-06,0.009810128314395296
168.5,-0.008136826586583826,0.0014604096202862349,-0.007580483947297557,0.0016652637642619417,3.82364718751643e-05,0.007324721935839088,1.2671395607597108e-05,0.009040893567583792
169.0,-0.008766810779870585,0.0008304254269994767,-0.007530188496265293,0.0013743451974676212,2.246729269732032e-05,0.006946483774450086,1.731765864974245e-05,0.00836061392326477
169.5,-0.008580726013255066,0.0010165101936149955,-0.00673949014792594,0.0011318542189129239,1.3009988720297456e-05,0.006587689013594393,2.3447120313321193e-05,0.007756000341540935
170.0,-0.008824666604751785,0.0007725696021182761,-0.0064438972503816985,0.0009302239845756094,7.426431263313747e-06,0.006247361411386267,3.145502527478477e-05,0.007216466852499975
170.5,-0.009597236206870061,0.0,-0.006733537627123939,0.0007629693067095066,4.180055588025454e-06,0.005924571133289039,4.1817131537367834e-05,0.006733537627123939
171.0,-0.009564992671927137,3.2243534942924534e-05,-0.0062681613099344925,0.0006245523395387408,2.320608989389683e-06,0.005618432793827938,5.5099102521348536e-05,0.006300404844877417
171.5,-0.009399252186944313,0.00019798401992574856,-0.005713616545948852,0.0005102608202139161,1.2710338668453675e-06,0.005328103558259524,7.196515353431354e-05,0.0059116005658746
172.0,-0.009347507865493062,0.000249728341376999,-0.005313023921645895,0.0004160985734432103,6.870093005362657e-07,0.00505278130456057,9.31853757185778e-05,0.005562752263022894
172.5,-0.009480426044537856,0.00011681016233220515,-0.005133588083029328,0.00033868776321217256,3.665485285733238e-07,0.004791702845819968,0.00011964108780081852,0.005250398245361533
173.0,-0.009201665450849335,0.00039557075602072653,-0.004576274285041149,0.0002751822171822792,1.9309663685077395e-07,0.004544142212869059,0.00015232751437368563,0.004971845041061875
173.5,-0.00926785557004511,0.00032938063682495106,-0.0043956729358169,0.00022319104714912366,1.004618811408395e-07,0.00430940899676626,0.00019235306684532743,0.004725053572641851
174.0,-0.008929997466351357,0.0006672387405187042,-0.0038413058906657943,0.00018071173181095028,5.1631924885699324e-08,0.004086846750560186,0.00024093451688847624,0.0045085446311844985
