wavelength,absorbance,absorbance_bk,residual_3gauss
117.0,0.4791000188627941,0.48869725506966416,-0.010274613265011945
117.5,0.4841331218010193,0.4937303580078894,-0.0008869674229808888
118.0,0.4719522510421498,0.48154948724901986,-0.008104968023317005
118.5,0.4731032414046032,0.4827004776114733,-0.001418774261087885
119.0,0.4696260263044429,0.479223262511313,0.0011745320474095822
119.5,0.46244576841387536,0.47204300462074544,0.0005622691953598435
120.0,0.45827523127595654,0.4678724674828266,0.0034186689196813447
120.5,0.45093087337934495,0.46052810958621504,0.003521049367884943
121.0,0.4449036253459296,0.4545008615527997,0.005320594298019898
121.5,0.43793552212159786,0.44753275832846795,0.006518895200809227
122.0,0.42814971191070367,0.43774694811757375,0.005197762562928754
122.5,0.41737022373238464,0.4269674599392547,0.0031386736123523162
123.0,0.4090558337501298,0.4186530699569999,0.0037561849671159386
123.5,0.3981391282199692,0.4077363644268393,0.001936401435059798
124.0,0.3873565082432501,0.39695374445012016,0.00036624742027507873
124.5,0.376700554628204,0.3862977908350741,-0.00101502866001707
125.0,0.365627902609197,0.37522513881606706,-0.002808941360790962
125.5,0.3560206066408002,0.3656178428476703,-0.003197424312935071
126.0,0.34659423291202174,0.3561914691188918,-0.003535757866361122
126.5,0.3365857251416504,0.3461829613485205,-0.004665644573964567
127.0,0.32922085679257584,0.33881809299944593,-0.0034485244193525055
127.5,0.3209297553153912,0.3305269915222613,-0.003550535816794431
128.0,0.31368178036187433,0.3232790165687444,-0.003107724289120206
128.5,0.3075200092912266,0.31711724549809667,-0.002191129284566551
129.0,0.30298729329436447,0.31258452950123455,-0.0003796790483767687
129.5,0.29852605565934626,0.30812329186621634,0.0006413645672235235
130.0,0.29517781786928554,0.3047750540761556,0.0017824524245675377
130.5,0.29261808395940864,0.3022153201662787,0.0025879297871708173
131.0,0.29099410121508373,0.3005913374219538,0.003077835149382868
131.5,0.29089178524907294,0.30048902145594303,0.003719512210498932
132.0,0.2922272484403268,0.3018244846471969,0.004324324444827998
132.5,0.2944279420591912,0.3040251782660613,0.0042342783323318645
133.0,0.29829595320502245,0.30789318941189253,0.004190844958203155
133.5,0.3029802554033853,0.3125774916102554,0.0033124924660887234
134.0,0.3093730993698328,0.3189703355767029,0.0024958107824491482
134.5,0.31727802588724063,0.3268752620941107,0.001587405895897065
135.0,0.3257651491726598,0.3353623853795299,-0.00025807150003887003
135.5,0.336588154324118,0.34618539053098807,-0.0011595613395898319
136.0,0.3483175848705144,0.3579148210773845,-0.0023764990542733955
136.5,0.3616047362060997,0.37120197241296976,-0.0030467801760930557
137.0,0.3765862267013672,0.3861834629082373,-0.0027857327884084904
137.5,0.39271776809964015,0.40231500430651024,-0.0018575053370827321
138.0,0.4091299389025288,0.4187271751093989,-0.0008259059598902385
138.5,0.4256310916011004,0.4352283278079705,0.00044067919897716745
139.0,0.4415730573120719,0.451170293518942,0.001626262063196382
139.5,0.45626994547883887,0.46586718168570895,0.002376780552279689
140.0,0.46882740387119193,0.478424640078062,0.0021199316894442988
140.5,0.4792436160736211,0.4888408522804912,0.001156979489409904
141.0,0.48703830605536313,0.4966355422622332,-0.00071682106384785
141.5,0.49340107223863006,0.5029983084455001,-0.0020715354811122744
142.0,0.4976565022368412,0.5072537384437112,-0.003383889018831465
142.5,0.5013378153235187,0.5109350515303888,-0.0029687212382336625
143.0,0.5024505562576485,0.5120477924645185,-0.002718974678958319
143.5,0.5019960791774406,0.5115933153843106,-0.001584537230062688
144.0,0.49886691401433875,0.5084641502212088,-0.000678012823848495
144.5,0.49307214135924904,0.5026693775661191,-4.954014525315742e-05
145.0,0.4850794649444742,0.49467670115134427,0.0006557664951249431
145.5,0.474962326208034,0.4845595624149041,0.001345911408024869
146.0,0.4622703396164945,0.4718675758233646,0.0013539323900190747
146.5,0.4478344662125937,0.4574317024194638,0.0012453709573615468
147.0,0.43166202150650784,0.44125925771337793,0.0007170938329243426
147.5,0.414608147569808,0.4242053837766781,0.00027515200004146756
148.0,0.39669752334496405,0.40629475955183414,-0.00043330569130545227
148.5,0.37959181422142174,0.3891890504282918,-0.0001374639505649644
149.0,0.36328221321200377,0.37287944941887385,0.0007702390413161231
149.5,0.3481629215393256,0.3577601577461957,0.0023329898463703147
150.0,0.3330108460963034,0.34260808230317347,0.003037591102920234
150.5,0.3182617745235973,0.32785901073046736,0.003118424069054493
151.0,0.3045446632110175,0.31414189941788756,0.0031145454525760563
151.5,0.2905514479967788,0.3001486842036489,0.0017525714422548244
152.0,0.2773390048389049,0.286936241045775,0.00024800066511571073
152.5,0.2653488486190648,0.2749460848259349,-0.0006915385476355951
153.0,0.2537930200341446,0.2633902562410147,-0.0015120914939539265
153.5,0.24242384531788036,0.25202108152475045,-0.0020870451688730918
154.0,0.23063288321082925,0.2402301194176993,-0.002667362740730095
154.5,0.2186426685711323,0.22823990477800235,-0.0027373837340413376
155.0,0.20596260375069608,0.21555983995756614,-0.0025975013713662176
155.5,0.19298947622050427,0.20258671242737433,-0.001787438358643395
156.0,0.17923225182348052,0.18882948803035057,-0.0008673419367490054
156.5,0.16532704409264734,0.1749242802995174,0.0006091480106006075
157.0,0.1511260058593821,0.16072324206625216,0.0022105647808161044
157.5,0.1358380262345918,0.14543526244146185,0.002804686512848986
158.0,0.12125525172075832,0.13085248792762838,0.0038248307101770296
158.5,0.10670043117591713,0.11629766738278718,0.004254419131819134
159.0,0.09240110706153824,0.1019983432684083,0.004031149122780894
159.5,0.07854784339207944,0.0881450795989495,0.0031251485569631643
160.0,0.0652966030622068,0.07489383926907686,0.001550427855440184
160.5,0.0535500925303216,0.06314732873719166,0.00014539744043655378
161.0,0.042023809572129686,0.051621045778999744,-0.0023696437569627193
161.5,0.032447811389099225,0.04204504759596929,-0.004204270765951534
162.0,0.024275507954710108,0.03387274416158017,-0.005804869108014962
162.5,0.017180412110799494,0.026777648317669555,-0.007373461291866435
163.0,0.011793553089920705,0.021390789296790766,-0.00814402446485344
163.5,0.007177295482152846,0.016774531689022907,-0.008919586455539773
164.0,0.003652701314441972,0.013249937521312033,-0.009252637157326672
164.5,0.0012364204465418035,0.010833656653411865,-0.00901303382603409
165.0,-0.0014090688916493352,0.008188167315220726,-0.009440048846024797
165.5,-0.002951840920903407,0.006645395285966654,-0.009119140163174354
166.0,-0.0046146439114708076,0.004982592295399254,-0.009205180491186193
166.5,-0.005341133574902562,0.0042561026319674995,-0.008587056675179321
167.0,-0.006334496048349064,0.0032627401585209976,-0.008424339470049908
167.5,-0.007024006892894744,0.002573229313975317,-0.008111866142262978
168.0,-0.007418570312754328,0.0021786658941157335,-0.00763146241974579
168.5,-0.008136826586583826,0.0014604096202862349,-0.007580483946603803
169.0,-0.008766810779870585,0.0008304254269994767,-0.007530188495427498
169.5,-0.008580726013255066,0.0010165101936149955,-0.006739490146962357
170.0,-0.008824666604751785,0.0007725696021182761,-0.006443897249311138
170.5,-0.009597236206870061,0.0,-0.006733537625964507
171.0,-0.009564992671927137,3.2243534942924534e-05,-0.006268161308702764
171.5,-0.009399252186944313,0.00019798401992574856,-0.005713616544659363
172.0,-0.009347507865493062,0.000249728341376999,-0.0053130239203108744
172.5,-0.009480426044537856,0.00011681016233220515,-0.005133588081658607
173.0,-0.009201665450849335,0.00039557075602072653,-0.004576274283642216
173.5,-0.00926785557004511,0.00032938063682495106,-0.004395672934395011
174.0,-0.008929997466351357,0.0006672387405187042,-0.0038413058892241385
174.5,-0.008993588385252835,0.0006036478216172262,-0.003717669061353108
175.0,-0.008490920203367348,0.0011063160035027133,-0.003056456631676593
175.5,-0.008666105010217839,0.0009311311966522223,-0.003101516797343091
176.0,-0.008330053242248722,0.0012671829646213398,-0.002663762194733024
176.5,-0.008512571167470097,0.0010846650393999645,-0.002773200322031162
177.0,-0.007408497706409912,0.002188738500460149,-0.001625003126781229
177.5,-0.007096670119072872,0.0025005660877971897,-0.0012984050188837833
178.0,-0.00727595086614271,0.002321285340727351,-0.0014926618285989188
178.5,-0.006228477685478615,0.003368758521391446,-0.0004902333849352981
179.0,-0.006175902812599316,0.0034213333942707458,-0.0005129566435294053
179.5,-0.005914340903537652,0.003682895303332409,-0.0003569302252341283
180.0,-0.005678420086005824,0.003918816120864237,-0.000256506322765521
180.5,-0.005150872308388413,0.0044463638984816485,0.0001061721796190131
181.0,-0.004977149380937161,0.0046200868259329,8.660125294058553e-05
181.5,-0.004847365889111835,0.004749870317758227,-3.990921018209338e-06
182.0,-0.00409550618243037,0.005501730024439691,0.0005021744811306676
182.5,-0.0039391316906256775,0.005658104516244384,0.0003897328922971696
183.0,-0.003572135051177459,0.006025101155692603,0.0004674224187596939
183.5,-0.003118383910451709,0.006478852296418352,0.0006144265815108555
184.0,-0.0030712313245830395,0.006526004882287021,0.00034083670629994275
184.5,-0.0023801938270407936,0.007217042379829268,0.0007009332768637714
185.0,-0.001960573239408998,0.007636662967461063,0.0007835110467989213
185.5,-0.0013125812865514223,0.00828465492031864,0.0010926901931447262
186.0,-0.0013489039528917224,0.008248332253978339,0.000720278349232651
186.5,-0.0009113684526965155,0.008685867754173546,0.0008290227843217
187.0,-0.00029998585801665085,0.00929725034885341,0.0011234821107213456
187.5,-0.0003289281146399085,0.009268308092230153,0.000793961400384062
188.0,2.2896744559333806e-05,0.009620132951429395,0.0008658495972905748
188.5,0.00035576200978884484,0.009952998216658905,0.0009434527179272897
189.0,0.0006936769053832588,0.01029091311225332,0.001054469959023292
189.5,0.0006393137943274658,0.010236550001197527,0.0008048504198420545
190.0,0.00054997655655915,0.010147212763429211,0.0005547010216795656
190.5,0.001148711975294614,0.010745948182164676,0.0010293490796966284
191.0,0.0008019610974695403,0.010399197304339601,0.000596957682291125
191.5,0.0008347528123501836,0.010431989019220244,0.0005836968495266642
192.0,0.0009090976174303368,0.010506333824300398,0.0006521286965116314
192.5,0.0008449739035107757,0.010442210110380837,0.0006221987308654073
193.0,0.0006259159980468535,0.010223152204916914,0.00047684189070384443
193.5,0.0005275293547466683,0.01012476556161673,0.0004905276942169228
194.0,-4.065218770388428e-06,0.009593170988099673,0.00010774504998190514
194.5,-0.0006245681046584471,0.008972668102211614,-0.0003292846819980214
195.0,-0.0012776537901540352,0.008319582416716025,-0.0007667037639401061
195.5,-0.0022431223941400194,0.007354113812730042,-0.0014871074225676975
196.0,-0.002777102507811952,0.006820133699058109,-0.0017496810926130243
196.5,-0.0031316781245447154,0.006465558082325346,-0.0018097602325982363
197.0,-0.0038835682124458448,0.005713667994424217,-0.0022474430665730197
197.5,-0.004260323398719658,0.0053369128081504034,-0.0022937223724917013
198.0,-0.004655020883179495,0.004942215323690566,-0.0023451188951153154
198.5,-0.005464796011848523,0.004132440195021538,-0.0028021560527409853
199.0,-0.0054319275335389765,0.004165308673331085,-0.002410393956979123
199.5,-0.005320447752332442,0.0042767884545376195,-0.0019369947038822017
200.0,-0.005299747431596162,0.004297488775273899,-0.0015542892876586594
200.5,-0.005497385823780983,0.004099850383089078,-0.001392556767090207
201.0,-0.005805923794001698,0.0037913124128683634,-0.0013468336863019532
201.5,-0.006167319846501035,0.003429916360369026,-0.0013612933937824498
202.0,-0.005855957543377597,0.0037412786634924648,-0.0007122634125674753
202.5,-0.005687208205882994,0.0039100280009870675,-0.0002167842743817424
203.0,-0.005407018051773882,0.00419021815509618,0.0003778016159982859
203.5,-0.00569660503942172,0.0039006311674483415,0.0003891464812768538
204.0,-0.005219311494545843,0.004377924712324218,0.001153033675874221
204.5,-0.005608180136480813,0.003989056070389249,0.001035787313034589
205.0,-0.005668051203815872,0.00392918500305419,0.0012321580480025613
205.5,-0.005622882595422302,0.0039743536114477595,0.001517983810256843
206.0,-0.005548495524582921,0.00404874068228714,0.0018174236548065335
206.5,-0.005696827848897998,0.0039004083579720636,0.0018786831828599346
207.0,-0.005390483711694425,0.004206752495175636,0.0023794434446539076
207.5,-0.005267607568320794,0.004329628638549268,0.002681965728861807
208.0,-0.0053681353313309805,0.004229100875539081,0.0027468199085965584
208.5,-0.005467298105606861,0.004129938101263201,0.0027993612029029776
209.0,-0.005265213575258991,0.00433202263161107,0.0031401205498274207
209.5,-0.0050683263270418,0.004528909879828262,0.0034633474961865513
210.0,-0.004668266810055423,0.0049289693968146385,0.003978136031451035
210.5,-0.005018272833037527,0.0045789633738325345,0.0037319895353828754
211.0,-0.004883467543648496,0.0047137686632215655,0.003960530916778522
211.5,-0.005150502513523811,0.004446733693346251,0.003777849299467698
212.0,-0.00465625928890518,0.004940976917964881,0.00434778984120129
212.5,-0.005293787479628101,0.004303448727241961,0.003778008530730928
213.0,-0.004293501322076509,0.005303734884793553,0.004838769924869264
213.5,-0.004313609472417188,0.005283626734452873,0.004872512952055619
214.0,-0.004569234553035594,0.005028001653834467,0.004664728133237192
214.5,-0.0044989513555675036,0.005098284851302558,0.004777417186043783
215.0,-0.004387275053913894,0.005209961152956168,0.004926603527896409
215.5,-0.0042714391100667215,0.00532579709680334,0.00507555386720177
216.0,-0.0040201335018201926,0.005577102705049869,0.005356040131099702
216.5,-0.0042602221223352445,0.005337014084534817,0.0051416227648743125
217.0,-0.00435927270354837,0.005237963503321692,0.0050651219450531
217.5,-0.004273120401646626,0.005324115805223436,0.005171055471819648
218.0,-0.003978769677302424,0.005618466529567637,0.005482738622186471
218.5,-0.004304794701858281,0.00529244150501178,0.005171885657269406
219.0,-0.004108547992364949,0.005488688214505113,0.005381403215488082
219.5,-0.004130704912707725,0.005466531294162336,0.0053708478989575245
220.0,-0.003793806044086556,0.0058034301627835055,0.005717886003481986
