wavelength,absorbance,absorbance_bk,residual_3gauss
117.0,0.2178440428505201,0.217981654255171,-0.003048168393973205
117.5,0.21706006256977367,0.21719767397442458,-0.001590040656865882
118.0,0.2154349351507029,0.2155725465553538,-0.0007128733790132957
118.5,0.21330005634316823,0.21343766774781914,-0.00010211646912886008
119.0,0.2118515431421244,0.2119891545467753,0.0014211784998968413
119.5,0.20902314325571,0.2091607546603609,0.0017733601125047294
120.0,0.2047457430024516,0.2048833544071025,0.000867756380488055
120.5,0.20359311887001263,0.20373073027466354,0.0032604713792326045
121.0,0.20161417570823512,0.20175178711288602,0.004982635934028257
121.5,0.19703163528653847,0.19716924669118938,0.004239068871939949
122.0,0.19175923927798083,0.19189685068263174,0.0029254049754888767
122.5,0.1878429453034209,0.18798055670807182,0.0030691600672889396
123.0,0.18268093702635352,0.18281854843100442,0.00204954643140709
123.5,0.17859013103812468,0.1787277424427756,0.0021637149342904616
124.0,0.17322121999122783,0.17335883139587874,0.0010414596084001027
124.5,0.16725868684712605,0.16739629825177696,-0.0006551799349459042
125.0,0.1617103605882007,0.1618479719928516,-0.0019428415689136114
125.5,0.15709968743045835,0.15723729883510926,-0.0023251013309918966
126.0,0.15221394121389378,0.1523515526185447,-0.0030448253322369334
126.5,0.1476167722242742,0.1477543836289251,-0.003572181103871336
127.0,0.14368325041643415,0.14382086182108506,-0.0035701098302395318
127.5,0.1396646126035903,0.13980222400824122,-0.0038299980321330473
128.0,0.13615411845613495,0.13629172986078586,-0.0038060845977199997
128.5,0.13396569905378197,0.13410331045843288,-0.002736855913119035
129.0,0.13100538409217413,0.13114299549682504,-0.002773379586971908
129.5,0.12951553597481316,0.12965314737946407,-0.0017344905888992956
130.0,0.12817247703488507,0.12831008843953598,-0.0010081970831649079
130.5,0.12670126469109447,0.12683887609574537,-0.0009355223486932907
131.0,0.12644930497607665,0.12658691638072755,-0.0002350869832987157
131.5,0.12647993373787952,0.12661754514253043,9.267512940180911e-05
132.0,0.1272612423023393,0.1273988537069902,0.00045688995527107257
132.5,0.1288566028686082,0.1289942142732591,0.0008695749858153856
133.0,0.131165469171912,0.1313030805765629,0.0011893890804697549
133.5,0.13406989444310438,0.1342075058477553,0.0012711010979864212
134.0,0.13748920013982918,0.1376268115444801,0.0010230510828385109
134.5,0.1419981663706054,0.1421357777752563,0.0010278063330107778
135.0,0.14674185048693775,0.14687946189158865,0.00045895233334419805
135.5,0.15260538378042884,0.15274299518507975,0.00025221582452941704
136.0,0.15886362460690995,0.15900123601156085,-0.0002443290259774855
136.5,0.1659267413026397,0.1660643527072906,-0.000524989764966316
137.0,0.17383367075936396,0.17397128216401486,-0.0004342223134480294
137.5,0.18255358269255184,0.18269119409720275,0.00013269575712498982
138.0,0.19105354786558912,0.19119115927024002,0.0002943352319790815
138.5,0.20017596002031812,0.20031357142496903,0.0010567788703856607
139.0,0.20890116127767927,0.20903877268233018,0.001571872471861635
139.5,0.21658914981365007,0.21672676121830098,0.0013741210212054322
140.0,0.22383137719184987,0.22396898859650077,0.0012274393388047589
140.5,0.23013796475198053,0.23027557615663144,0.0008072982879617219
141.0,0.23472383750416165,0.23486144890881255,-0.0005180285987370081
141.5,0.2389902720202388,0.2391278834248897,-0.0012104354694394415
142.0,0.24213076461447744,0.24226837601912835,-0.0019601133447127994
142.5,0.24481820869113988,0.24495582009579078,-0.0020017428924602176
143.0,0.24647850618628175,0.24661611759093266,-0.0018435711561186896
143.5,0.24726083394625553,0.24739844535090644,-0.001299147023215208
144.0,0.2466110082421351,0.24674861964678602,-0.0009153067527710168
144.5,0.2447794516228937,0.2449170630275446,-0.0004649556821230971
145.0,0.2418010204681246,0.2419386318727755,3.258001560002555e-05
145.5,0.2376946926643712,0.23783230406902212,0.0005116568684746248
146.0,0.23206339460018288,0.2322010060048338,0.0004612730667946652
146.5,0.22575075351611065,0.22588836492076156,0.0005839049291208875
147.0,0.21852123388817288,0.21865884529282378,0.00047901889624060723
147.5,0.21078492049081235,0.21092253189546326,0.00037290866593647776
148.0,0.20277758155553924,0.20291519296019014,0.0003058231540038203
148.5,0.1946142548799386,0.19475186628458951,0.00019476839641877075
149.0,0.18684817932164935,0.18698579072630025,0.0004036098191192994
149.5,0.17976029765194423,0.17989790905659514,0.001045058337235949
150.0,0.17264762041081233,0.17278523181546324,0.0012817091030800642
150.5,0.16606849339744084,0.16620610480209175,0.00158265709788602
151.0,0.15945804674174735,0.15959565814639826,0.0013472543287389172
151.5,0.152915331720418,0.1530529431250689,0.0006959080722715727
152.0,0.14686456866275768,0.1470021800674086,0.00012918565386177416
152.5,0.14114825508735887,0.14128586649200978,-0.0003874296422196333
153.0,0.13561055470353664,0.13574816610818755,-0.0008541766076382851
153.5,0.13036848811657337,0.13050609952122427,-0.0009840469126668194
154.0,0.12456093421347388,0.12469854561812478,-0.0014739631544355009
154.5,0.11927089878150655,0.11940851018615746,-0.0011020116403050728
155.0,0.11323778485865887,0.11337539626330978,-0.0010314107426990515
155.5,0.10668987006294749,0.10682748146759839,-0.0009889233565587435
156.0,0.10000913178204712,0.10014674318669803,-0.0006043319976578171
156.5,0.09310819282368499,0.0932458042283359,-3.098560999230393e-05
157.0,0.08601612006405883,0.08615373146870973,0.0006485328115781036
157.5,0.07846661730540344,0.07860422871005435,0.0010235802531390198
158.0,0.07130028521188417,0.07143789661653507,0.0017730933841140772
158.5,0.06389885904654946,0.06403647045120037,0.0021154594156844314
159.0,0.055945461815707594,0.0560830732203585,0.0015827568440469411
159.5,0.04932892882301896,0.049466540227669865,0.0019360210130680913
160.0,0.0422934863805028,0.04243109778515371,0.0013220420194414786
160.5,0.03618385377679285,0.03632146518144375,0.001021617553510032
161.0,0.02928358609106568,0.029421197495716585,-0.0007125385249252929
161.5,0.02376456626423715,0.023902177668888056,-0.0017095731163018525
162.0,0.019695332539965277,0.019832943944616183,-0.0018773368396063674
162.5,0.01584528499648796,0.015982896401138865,-0.0024043022627991614
163.0,0.012508747292919504,0.01264635869757041,-0.002941750466782564
163.5,0.010328815200223362,0.010466426604874268,-0.002785659054826072
164.0,0.007931364844576735,0.00806897624922764,-0.0032475083915620966
164.5,0.006413606235500147,0.006551217640151053,-0.003169424365202977
165.0,0.0050851098492447405,0.005222721253895646,-0.003185710190533232
165.5,0.004197325009783177,0.004334936414434083,-0.0029948546002838885
166.0,0.0031600603317813543,0.0032976717364322605,-0.00314372625104874
166.5,0.0020556303663750537,0.00219324177102596,-0.00351345939486233
167.0,0.0016848815137449824,0.0018224929183958886,-0.003273022301112811
167.5,0.0010321336507950283,0.0011697450554459345,-0.003413610305325523
168.0,0.000752622241578649,0.0008902336462295553,-0.0032604201501454156
168.5,0.0007093313309589072,0.0008469427356098135,-0.0029350175272599612
169.0,2.8855495305508167e-05,0.0001664668999564144,-0.0032987263043767505
169.5,0.0001095619341267382,0.00024717333877764445,-0.002943805448501372
170.0,-8.430559724736726e-05,5.330580740353897e-05,-0.0028987871598383933
170.5,-0.00013761140465090623,0.0,-0.002743006855182337
171.0,0.0004110240294507964,0.0005486354341017026,-0.0020108911227314633
171.5,0.00017776740608423957,0.0003153788107351458,-0.0020831352566565674
172.0,0.00010420896279592782,0.00024182036744683404,-0.002015853955586742
172.5,0.00028274635215825574,0.000420357756809162,-0.0017150362167292618
173.0,0.0006453062625958189,0.0007829176672467252,-0.0012477012905757656
173.5,0.00021323323662887213,0.00035084464127977836,-0.0015919152806938548
174.0,0.00031744055489689774,0.000455051959547804,-0.0014165645769476027
174.5,0.0003294156639083442,0.00046702706855925047,-0.0013502865734857437
175.0,0.000771960799966702,0.0009095722046176082,-0.0008706715936976021
175.5,0.0008185861364712208,0.000956197541122127,-0.0008048146786394271
176.0,0.0006867323100144369,0.0008243437146653431,-0.0009360375682622268
176.5,0.0007314070792470829,0.0008690184838979891,-0.0009101943401271985
177.0,0.0014520756583573371,0.0015896870630082434,-0.0002287202872296801
177.5,0.0015989639455374115,0.0017365753501883178,-0.0001422647410107246
178.0,0.0020326928251199554,0.0021703042297708617,0.00020900969786012344
178.5,0.00224185977864845,0.0023794711832993564,0.00031307648765406754
179.0,0.0023637054469852307,0.002501316851636137,0.00030677887629234615
179.5,0.002808548997716233,0.0029461604023671394,0.0006003296741169278
180.0,0.002787563178187303,0.002925174582838209,0.0004051454509164023
180.5,0.002740973680121225,0.002878585084772131,0.0001620971521350766
181.0,0.002813920275156176,0.0029515316798070824,1.741199307423759e-05
181.5,0.003189168386328509,0.0033267797909794154,0.00015541289463107252
182.0,0.003809419808237172,0.003947031212888078,0.0005208421351292174
182.5,0.004114746660850776,0.004252358065501682,0.0005562917778290707
183.0,0.003994716699521423,0.004132328104172329,0.0001543081086933908
183.5,0.004004304746088398,0.004141916150739304,-0.00012673531074303048
184.0,0.004717345166686553,0.004854956571337459,0.0002907595676730672
184.5,0.004401036412036709,0.004538647816687615,-0.00032195093715608244
185.0,0.0045933157435249115,0.004730927148175817,-0.0004226616166409019
185.5,0.005353297932743427,0.0054909093373943325,5.212565973668464e-05
186.0,0.00527994365835082,0.0054175550630017255,-0.00029423156913220734
186.5,0.0053984148227692085,0.005536026227420114,-0.0004322665071262574
187.0,0.005609270231153642,0.005746881635804548,-0.00045731257179087385
187.5,0.005727055788381969,0.005864667193032875,-0.0005510141531217694
188.0,0.00643718784365447,0.0065747992483053755,-2.45363410659883e-05
188.5,0.006684119322496389,0.0068217307271472944,6.951934690779121e-05
189.0,0.007115171916284176,0.007252783320935082,0.00038087932540432305
189.5,0.0070259732082415755,0.007163584612892481,0.00020698345254809795
190.0,0.007273875728013825,0.007411487132664731,0.00040637015730155424
190.5,0.006933686533641664,0.00707129793829257,5.439049743154005e-05
191.0,0.007052859325631672,0.0071904707302825775,0.00019840311141200006
191.5,0.006964719646363975,0.007102331051014881,0.00017101985587854827
192.0,0.007039169682636489,0.0071767810872873945,0.0003408472358656647
192.5,0.007217725481294296,0.007355336885945201,0.0006475744774554048
193.0,0.0069294347059388065,0.007067046110589712,0.0005179539804345944
193.5,0.006861949857291609,0.006999561261942515,0.0006369463851480257
194.0,0.006517998293675128,0.006655609698326034,0.0005042687400157271
194.5,0.006320300700298605,0.006457912104949511,0.0005393945398428574
195.0,0.0054187707814021685,0.005556382186053074,-0.00011116437517231636
195.5,0.004919320929646343,0.005056932334297249,-0.0003449718876341306
196.0,0.004589662825604928,0.0047272742302558336,-0.00039779097802415155
196.5,0.004109534828335065,0.004247146232985971,-0.0005932864825828922
197.0,0.003972304169830401,0.004109915574481307,-0.0004413607595722957
197.5,0.0032436237336797118,0.003381235138330618,-0.0008794436031239641
198.0,0.003097024092451605,0.003234635497102511,-0.0007368564314454971
198.5,0.0027965345647509563,0.0029341459694018626,-0.000752157290512573
199.0,0.002562371980549049,0.0026999833851999552,-0.0007074279216990075
199.5,0.002339892976243732,0.002477504380894638,-0.0006593066897096003
200.0,0.0024734900177809135,0.0026111014224318198,-0.0002650865247287074
200.5,0.002680097842858723,0.0028177092475096294,0.00019078966765466963
201.0,0.0011623792690831603,0.0012999906737340666,-0.0010900939201644768
201.5,0.000966420073208593,0.0011040314778594993,-0.0010624456398835088
202.0,0.0011684972531478093,0.0013061086577987155,-0.000650517297858214
202.5,0.0013472290869636506,0.0014848404916145569,-0.00027597679208711274
203.0,0.0016880397548221036,0.0018256511594730099,0.0002465313713844134
203.5,0.0011857516660319534,0.0013233630706828597,-8.804817261078815e-05
204.0,0.0019018530930696995,0.0020394644977206056,0.000782058868475953
204.5,0.001451826019752262,0.0015894374244031682,0.0004727574197639082
205.0,0.0018065204086703632,0.0019441318133212695,0.000955431333471322
205.5,0.0017523060242988031,0.0018899174289497094,0.001017070667341505
206.0,0.001070574484693148,0.0012081858893440542,0.00043975102194214087
206.5,0.0011699752720708636,0.0013075866767217699,0.0006328489507293585
207.0,0.001449206969443286,0.0015868183740941923,0.0009958148856452798
207.5,0.0013543915069360547,0.001492002911586961,0.0009755314421721017
208.0,0.0011605176837567223,0.0012981290884076285,0.0008477433687168929
208.5,0.0011298185302685622,0.0012674299349194685,0.0008754236367387741
209.0,0.0010650396241533812,0.0012026510288042874,0.0008620326647906255
209.5,0.0011450562623477865,0.0012826676669986927,0.000987128418042851
210.0,0.0016362437666536714,0.0017738551713045777,0.001517731474088797
210.5,0.0018112521904778656,0.001948863595128772,0.0017270961193231035
211.0,0.001950948129258576,0.002088559533909482,0.0018966499685938345
211.5,0.0013219397589757991,0.0014595511636267054,0.0012935180237409168
212.0,0.0021312648639085783,0.0022688762685594845,0.0021252107306569934
212.5,0.0013403194647435203,0.0014779308693944266,0.00135355345640119
213.0,0.001657535076228982,0.0017951464808798883,0.0016873652412735158
213.5,0.0015641855737696597,0.001701796978420566,0.0016082676483797293
214.0,0.001660187498044958,0.0017977989026958642,0.0017164874014354411
214.5,0.00164472065436884,0.0017823320590197463,0.0017114795479845422
215.0,0.001820083110140904,0.00195769451479181,0.0018957851502188002
215.5,0.0018891004525653649,0.002026711857216271,0.001972443281868229
216.0,0.0015713871361770376,0.0017089985408279438,0.001661255093160387
216.5,0.0016401237424160152,0.0017777351470669215,0.0017355637131875035
217.0,0.0014804541338601493,0.0016180655385110555,0.0015806539323672162
217.5,0.0015984109838784288,0.001736022388529335,0.0017026801171149363
218.0,0.0013819723070827529,0.0015195837117336591,0.0014897249630636256
218.5,0.0016899730624046116,0.001827584467055518,0.0018007131476230293
219.0,0.0014516417331522527,0.001589253137803159,0.001564949781725752
219.5,0.0014848859181940915,0.0016224973228449978,0.0016004076955821078
220.0,0.0013406041850874764,0.0014782155897383826,0.0014580408139333255
