wavelength,absorbance,absorbance_bk,residual_3gauss
117.0,0.7220868984602208,0.7277778071214742,-0.0043252750122173556
117.5,0.7170090307791067,0.7226999394403602,-0.0027994049947103194
118.0,0.7036191610746265,0.70931006973588,-0.008699328413198981
118.5,0.698816314561172,0.7045072232224254,-0.00517959016672731
119.0,0.6919172230783128,0.6976081317395663,-0.002978504452887276
119.5,0.6849929533738797,0.6906838620351331,-8.126727058921368e-05
120.0,0.6792702110508546,0.684961119712108,0.0046815250412197695
120.5,0.6705348816881193,0.6762257903493727,0.007037493264410832
121.0,0.6564919621485859,0.6621828708098393,0.0046323602253922624
121.5,0.6470610993447019,0.6527520080059553,0.0073252976842929085
122.0,0.6360912834581858,0.6417821921194392,0.0089032596894566
122.5,0.618629762369694,0.6243206710309475,0.0043493491344301916
123.0,0.6063112908451266,0.61200219950638,0.0052313164810274815
123.5,0.589948426203331,0.5956393348645844,0.0022908968649504313
124.0,0.5771025726225354,0.5827934812837888,0.0030136954446667863
124.5,0.5585338044144891,0.5642247130757425,-0.0019223234487871776
125.0,0.5426735374127839,0.5483644460740373,-0.00417562742554356
125.5,0.5287458607863509,0.5344367694476043,-0.004621303565137569
126.0,0.5138455453244436,0.519536453985697,-0.006274528320808326
126.5,0.5004287222460342,0.5061196309072876,-0.006801201716082117
127.0,0.48826569764409783,0.49395660630535126,-0.0065661337418458365
127.5,0.4776124761616808,0.4833033848229342,-0.0054620455603319185
128.0,0.4678452705689599,0.47353617923021335,-0.004274937521163258
128.5,0.4595854229805608,0.46527633164181426,-0.0025582315970788527
129.0,0.4517380195089205,0.45742892817017394,-0.0015922589614772442
129.5,0.44639815313448894,0.4520890617957424,0.0005249745836684583
130.0,0.44222852062516954,0.447919429286423,0.002259492918742667
130.5,0.43944314933265777,0.4451340579939112,0.003630316261840516
131.0,0.438243499732043,0.44393440839329645,0.0046518567796050014
131.5,0.4386338009672876,0.44432470962854104,0.005156438756422077
132.0,0.4415385393092108,0.4472294479704642,0.0059196187049841975
132.5,0.4461227279874961,0.4518136366487495,0.005988612722416076
133.0,0.4527709000697169,0.4584618087309703,0.0056693880905930305
133.5,0.4612856703073395,0.46697657896859296,0.004732836396325879
134.0,0.4715162784394253,0.4772071871006787,0.003049992913496169
134.5,0.4841145735448464,0.4898054822060998,0.0013533234727167165
135.0,0.4984297934253852,0.5041207020866386,-0.0008649662119272206
135.5,0.5155246727733092,0.5212155814345626,-0.002335395606394952
136.0,0.5341634783868336,0.5398543870480871,-0.004024087000529253
136.5,0.5550334351622341,0.5607243438234876,-0.004914714100471396
137.0,0.5779765741648969,0.5836674828261503,-0.004782485102763134
137.5,0.6024892270468547,0.6081801357081081,-0.0037027991364687596
138.0,0.6280247068241073,0.6337156154853607,-0.0017587720774998594
138.5,0.65363274965209,0.6593236583133434,0.0005863207615540711
139.0,0.6779238805653677,0.6836147892266211,0.0024403187140802363
139.5,0.7004687048387358,0.7061596134999892,0.0038677043946204748
140.0,0.7195768454278296,0.7252677540890831,0.0036546769910625887
140.5,0.7350465437155329,0.7407374523767863,0.002045356048026359
141.0,0.7480931389306058,0.7537840475918592,0.0006578632356341041
141.5,0.7566171234123805,0.762308032073634,-0.0022585598613770186
142.0,0.7632949615077872,0.7689858701690406,-0.0037418532530617554
142.5,0.7681435523174059,0.7738344609786594,-0.003559755008356369
143.0,0.7694666909717259,0.7751575996329794,-0.0032683084918734284
143.5,0.7685957640703924,0.7742866727316459,-0.0014741194799897661
144.0,0.7632107408809606,0.7689016495422141,-0.0005145497131181509
144.5,0.7544897966996078,0.7601807053608612,0.0006921296336661609
145.0,0.7416489387813352,0.7473398474425886,0.0011876055520844142
145.5,0.7253410714083068,0.7310319800695603,0.0013745553209426609
146.0,0.7066369574034449,0.7123278660646983,0.002000261895042321
146.5,0.6841087602159157,0.6897996688771691,0.001243870990668472
147.0,0.6598847187164179,0.6655756273776713,0.0007767322838864166
147.5,0.633083091955735,0.6387740006169884,-0.0007946531897555786
148.0,0.6053179934921353,0.6110089021533888,-0.002408788800312811
148.5,0.579018508285212,0.5847094169464654,-0.0022095112538594863
149.0,0.5553037183682069,0.5609946270294603,0.0003569471153062054
149.5,0.5320372177999201,0.5377281264611735,0.0026312001193780077
150.0,0.5090734641222231,0.5147643727834765,0.0040262178230291434
150.5,0.4865384861317496,0.49222939479300304,0.0043472827893789034
151.0,0.4648099322675907,0.47050084092884414,0.003805480931134364
151.5,0.44400933086201455,0.449700239523268,0.002531109026797207
152.0,0.424364900908176,0.43005580956942946,0.0009396266324583902
152.5,0.40577878992866706,0.4114696985899205,-0.00071942998266733
153.0,0.3892128016814596,0.39490371034271304,-0.0010165405654231074
153.5,0.3724398553182191,0.37813076397947254,-0.0016481573418453133
154.0,0.35469953663845544,0.3603904452997089,-0.0028487144764792194
154.5,0.3370329817727806,0.34272389043403406,-0.0031237047107611216
155.0,0.3183599345269048,0.32405084318815824,-0.003230795002939102
155.5,0.29822441379625525,0.3039153224575087,-0.00347392436196281
156.0,0.27807545343112083,0.28376636209237427,-0.0024385362423160473
156.5,0.25768227771295554,0.263373186374209,-0.0005673654043256149
157.0,0.23664884925045923,0.2423397579117127,0.001385197315099257
157.5,0.21549098124485988,0.22118188990611334,0.003477073448565987
158.0,0.19441546859599637,0.20010637725724983,0.005412103582394079
158.5,0.17252026225644596,0.17821117091769942,0.005793958641422958
159.0,0.15165702583052942,0.1573479344917829,0.0060346082489251
159.5,0.13038750802271723,0.1360784166839707,0.004343976201282296
160.0,0.11113376200277388,0.11682467066402734,0.00289870345679942
160.5,0.09257361848741417,0.09826452714866764,0.0002418438119451971
161.0,0.07622891903935945,0.08191982770061292,-0.0021366419517009627
161.5,0.061779292344702405,0.06747020100595587,-0.004502313528730567
162.0,0.04936964022779849,0.05506054888905195,-0.0065896099329872185
162.5,0.03876546827413282,0.04445637693538628,-0.008468518481967093
163.0,0.02983278741816232,0.03552369607941578,-0.010085108758612571
163.5,0.023294393633865203,0.028985302295118663,-0.010522356681157932
164.0,0.018071932671024,0.02376284133227746,-0.01067101083137412
164.5,0.014179932928479253,0.019870841589732714,-0.010344239676602102
165.0,0.010914680576014335,0.016605589237267796,-0.010093638924108458
165.5,0.008507824335071459,0.01419873299632492,-0.009557460328898516
166.0,0.006491742592539668,0.012182651253793128,-0.009094873409958515
166.5,0.005427680493998337,0.011118589155251797,-0.008056048448586125
167.0,0.003956949305813987,0.009647857967067448,-0.0077284320833506896
167.5,0.0030994207674293803,0.00879032942868284,-0.007035480125161345
168.0,0.0024409008741133028,0.008131809535366763,-0.006346596735816166
168.5,0.00211258411948177,0.00780349278073523,-0.00549527285924754
169.0,0.002049625261417063,0.007740533922670524,-0.004518474387853138
169.5,0.0013549036195040852,0.007045812280757546,-0.0042912199322306995
170.0,0.0013458339026645356,0.007036742563917996,-0.003478465380259404
170.5,0.00099228993305021,0.00668319859430367,-0.003096178464316283
171.0,0.000856633389947869,0.00654754205120133,-0.002570554282249839
171.5,0.0003766195863587,0.006067528247612161,-0.0024545454134128064
172.0,0.0002752774220776406,0.005966186083331101,-0.002017562315285968
172.5,1.680843853908345e-05,0.005707717099792544,-0.0017892606354024008
173.0,0.0002382477462771192,0.00592915640753058,-0.0011276427111509219
173.5,0.0003136319171530798,0.006004540578406541,-0.0006547055524489531
174.0,-0.00024350086339409917,0.0054474077978593615,-0.0008537933097312444
174.5,-0.000264474122089254,0.005426434539164206,-0.0005538377941844896
175.0,-6.093306501849036e-05,0.00562997559623497,-6.4711414863995e-05
175.5,-0.000431645349614148,0.005259263311639313,-0.0001839303814996935
176.0,-0.0006715084974286726,0.005019400163824788,-0.0002055695467669547
176.5,-0.0007275439991539507,0.00496336466209951,-7.616590747636532e-05
177.0,-0.00028642332169112486,0.005404485339562335,0.000517845894890635
177.5,-0.0006870194865006391,0.005003889174752822,0.00023767327796438663
178.0,-0.0006896154894855459,0.0050012931717679145,0.00032304934243833003
178.5,-0.00034823999200680046,0.00534266866924666,0.0007199891742695908
179.0,-0.0009212554548014648,0.004769653206451996,0.00017029213484897297
179.5,-0.0005712011105773622,0.005119707550676099,0.000511785630852803
180.0,-0.0005748666344527903,0.0051160420268006705,0.0004683319382445912
180.5,-0.00021879985168956028,0.0054721088095639,0.0007543918900086832
181.0,-0.00011453657813278605,0.005576372083120675,0.000759854390323127
181.5,-0.0002661511737166215,0.005424757487536839,0.0004825303510244197
182.0,-0.00017316717926937992,0.005517741481984081,0.0004252691863911775
182.5,-0.00010359998848961256,0.005587308672763848,0.00032292395146019896
183.0,1.3216715274441608e-05,0.005704125376527903,0.00024951213727344903
183.5,-0.00020699299122979345,0.005483915670023667,-0.00017544204055614573
184.0,-5.757732491583449e-05,0.005633331336337626,-0.00024109193685775687
184.5,0.0003311991627685056,0.006022107824021966,-7.318576946587982e-05
185.0,0.0003231097405222723,0.006014018401775733,-0.0003032023330322188
185.5,0.0005332505294222753,0.0062241591906757356,-0.0003111692268060245
186.0,0.0007508686760785315,0.006441777337331992,-0.00030294742256049487
186.5,0.001406387474895579,0.007097296136149039,0.00015667604013454815
187.0,0.0012566902547120498,0.00694759891596551,-0.00017084627725522626
187.5,0.0015465090410803758,0.007237417702333836,-3.654745950681243e-05
188.0,0.001979505704220075,0.0076704143654735355,0.0002670298099835631
188.5,0.00107188318791528,0.00676279184916874,-0.000740647744544941
189.0,0.0013249025200284632,0.007015811181281924,-0.0005556628857432697
189.5,0.0009947196537020595,0.00668562831495552,-0.0009198679535675361
190.0,0.0016531682912279205,0.007344076952481381,-0.00026013823475983834
190.5,0.0017132502461350296,0.00740415890738849,-0.00016289623567344
191.0,0.0017340669454653764,0.007424975606718837,-6.917338083334106e-05
191.5,0.0014171699784208893,0.00710807863967435,-0.000278232248932646
192.0,0.0012932732214961272,0.006984181882749588,-0.0002608086318111793
192.5,0.001657777580763976,0.007348686242017437,0.00027647514267479644
193.0,0.0013750310301407012,0.007065939691394162,0.0001954453129158337
193.5,0.0013064262664245472,0.006997334927678008,0.00035455920613035145
194.0,0.001031721695359125,0.006722630356612585,0.0003303174101786134
194.5,0.0009286242065836918,0.006619532867837152,0.0004969405768766076
195.0,0.0007075059862258039,0.0063984146474792645,0.0005611797936930438
195.5,0.0005932622271868831,0.006284170888440343,0.0007442643672061176
196.0,4.22670549337829e-06,0.005695135366746839,0.000460901369276792
196.5,-0.000274099761386698,0.005416808899866762,0.000493079817605364
197.0,-0.0003213231398639877,0.005369585521389473,0.0007578626971951972
197.5,-0.0006978849535588085,0.004993023707694652,0.0006917130605266116
198.0,-0.0016320695624744423,0.004058839098779018,6.35300678719121e-05
198.5,-0.0019060706147097407,0.00378483804654372,8.861420177658534e-05
199.0,-0.002277050002158588,0.0034138586590948725,7.628652911689099e-06
199.5,-0.0029263329901979447,0.002764575671055516,-0.0003625861024318996
200.0,-0.0031356695475285687,0.002555239113724892,-0.00030527358146440744
200.5,-0.003710523968918932,0.0019803846923345286,-0.0006270593347034985
201.0,-0.004327765724664485,0.001363142936588976,-0.0010056573563211788
201.5,-0.0044145144845006215,0.001276394176752839,-0.0008687364241562433
202.0,-0.004184551275984145,0.0015063573852693154,-0.00043035693916682483
202.5,-0.00453422134690644,0.0011566873143470206,-0.0005869024955990464
203.0,-0.0046016495689491085,0.001089259092304352,-0.0004763257758087073
203.5,-0.004474197548818265,0.0012167111124351954,-0.00018563681992464953
204.0,-0.004686330686025433,0.0010045779752280272,-0.00024880094234726205
204.5,-0.004532699632898668,0.0011582090283547928,4.0150055773533876e-05
205.0,-0.004967849163713539,0.0007230594975399214,-0.00027261898632399
205.5,-0.00496326138659082,0.0007276472746626404,-0.00015781557332061695
206.0,-0.0044102454885808365,0.001280663172672624,0.0004940674925413618
206.5,-0.005340436303649191,0.0003504723576042692,-0.00034776690462430017
207.0,-0.0050399831494858365,0.000650925511767624,3.137335890585329e-05
207.5,-0.005644312576772788,4.659608448067277e-05,-0.0005031078972072838
208.0,-0.005265568360673642,0.0004253403005798186,-6.254723162178955e-05
208.5,-0.00497322561119411,0.000717683050059351,0.0002843547706371134
209.0,-0.005537668278718232,0.000153240382535229,-0.0002320512117426237
209.5,-0.005149958051715736,0.0005409506095377242,0.0001978627536353419
210.0,-0.00562137210871435,6.95365525391102e-05,-0.0002365391761956158
210.5,-0.004985039970608608,0.0007058686906448522,0.0004322048252740889
211.0,-0.005403853955482855,0.0002870547057706053,4.174341499184228e-05
211.5,-0.005317867826385377,0.00037304083486808335,0.00015251412399892647
212.0,-0.005690908661253461,0.0,-0.00019886697048491605
212.5,-0.0053741236952819845,0.00031678496597147606,0.00013685010155875315
213.0,-0.00538135116405298,0.0003095574972004807,0.00014618101566826598
213.5,-0.005460187249544134,0.00023072141170932692,8.184317371846104e-05
214.0,-0.00507182545779758,0.0006190832034558809,0.00048291947212130587
214.5,-0.005550066854260636,0.00014084180699282418,1.5851282374028803e-05
215.0,-0.00549159641436496,0.0001993122468885002,8.416529865286193e-05
215.5,-0.00542117759125069,0.00026973107000277056,0.00016328208211119404
216.0,-0.005137683975824012,0.0005532246854294482,0.0004544873753600591
216.5,-0.005569052306953783,0.00012185635429967732,2.9981892813788825e-05
217.0,-0.005310090755619587,0.00038081790563387376,0.00029507563914516746
217.5,-0.005656071354554789,3.4837306698671903e-05,-4.5402129219269545e-05
218.0,-0.005359054542098456,0.0003318541191550048,0.00025657472662096194
218.5,-0.005301842851728286,0.0003890658095251744,0.0003182774980364651
219.0,-0.005104871038601586,0.0005860376226518747,0.0005193342533726297
219.5,-0.004958566075131077,0.0007323425861223837,0.0006693713951611305
220.0,-0.004332575317748681,0.00135833334350478,0.0012987868606180984
