wavelength,absorbance,absorbance_bk,residual_3gauss
117.0,0.463384791804262,0.4692650072350849,-0.009953555204969877
117.5,0.4645828266472344,0.4704630420780573,-0.004763778950225395
118.0,0.45931242954374224,0.46519264497456514,-0.0054528459277656816
118.5,0.4571772908580048,0.4630575062888277,-0.002451044767803612
119.0,0.4533509802448449,0.4592311956756678,-0.000619832719141844
119.5,0.44948702238498234,0.45536723781580524,0.0016584232289951206
120.0,0.4436071321383191,0.449487347569142,0.002368815962032922
120.5,0.4395094913894727,0.4453897068202956,0.005272248418790204
121.0,0.43285064890487374,0.43873086433569664,0.00598733157081105
121.5,0.42590843440216414,0.43178864983298704,0.0067532060930413085
122.0,0.4178964923375097,0.4237767077683326,0.006743877499243545
122.5,0.4071220448522194,0.4130022602830423,0.00422565931257618
123.0,0.3973327382535693,0.4032129536843922,0.002903566443914818
123.5,0.3877366513009588,0.3936168667317817,0.0019407298361590053
124.0,0.37822520797685055,0.38410542340767345,0.001180575577970966
124.5,0.3672021209857961,0.373082336416619,-0.0010250940135005937
125.0,0.35777760879116505,0.36365782422198795,-0.0016228495763714879
125.5,0.3473097166904367,0.3531899321212596,-0.0033173424290032782
126.0,0.3381048428428604,0.3439850582736833,-0.003871810687231414
126.5,0.32916551603034605,0.33504573146116895,-0.004361259293966191
127.0,0.3210349637312419,0.3269151791620648,-0.004328680482675151
127.5,0.3137088908701575,0.3195891063009804,-0.0038737855268382027
128.0,0.3066727599804639,0.3125529754112868,-0.003615839901024709
128.5,0.30123141003724346,0.30711162546806636,-0.002363646803903663
129.0,0.29683427150450126,0.30271448693532416,-0.000789312600763481
129.5,0.2924692798540476,0.2983494952848705,-3.2602726632469103e-05
130.0,0.2896438274538226,0.2955240428846455,0.001282510138568893
130.5,0.2877347790631046,0.2936149944939275,0.002401147657306424
131.0,0.2866869333133746,0.2925671487441975,0.003140026055003131
131.5,0.28709827978163127,0.29297849521245417,0.003977414851801142
132.0,0.2887019852746012,0.2945822007054241,0.004540339726805065
132.5,0.29104925518968955,0.29692947062051245,0.00429297163335185
133.0,0.2948563156565267,0.3007365310873496,0.003889195767906972
133.5,0.3004224414051694,0.3063026568359923,0.003595997016155872
134.0,0.3072285695507177,0.3131087849815406,0.002896893773162157
134.5,0.31510544219087083,0.32098565762169373,0.0016640540754659927
135.0,0.32430471825841,0.3301849336892329,0.00023224579412045587
135.5,0.3350755892965967,0.3409558047274196,-0.0010230919744850242
136.0,0.3471301784372228,0.3530103938680457,-0.002220564288086535
136.5,0.3607854201812356,0.3666656356120585,-0.002832736172410144
137.0,0.37559992191836983,0.3814801373491927,-0.0030527723246822625
137.5,0.3917930916519184,0.3976733070827413,-0.002380448682210101
138.0,0.4087644126961037,0.4146446281269266,-0.0011094968266617267
138.5,0.42579487308298736,0.43167508851381026,0.0003659679174985997
139.0,0.4415226229563805,0.4474028383872034,0.0010183191526617064
139.5,0.45694407737163534,0.46282429280245824,0.0021781729960164697
140.0,0.4699515458747439,0.4758317613055668,0.002062496345076159
140.5,0.48065153210624967,0.48653174753707257,0.001083610882288366
141.0,0.4892080501669783,0.4950882655978012,-0.00031618247751125095
141.5,0.49569348586308487,0.5015737012939078,-0.0018214976534716154
142.0,0.5005075957203168,0.5063878111511396,-0.0028314192244303094
142.5,0.5040384953928311,0.5099187108236539,-0.002803695078692603
143.0,0.5054423272566866,0.5113225426875094,-0.0024788100763284415
143.5,0.5051102941017354,0.5109905095325582,-0.0014153032009549538
144.0,0.5019161532847699,0.5077963687155927,-0.0007433922115431812
144.5,0.496410476085433,0.5022906915162558,2.9160144235040875e-05
145.0,0.4882573747126611,0.494137590143484,0.00045437929625247175
145.5,0.4782881539090177,0.4841683693398406,0.0011988733452518718
146.0,0.4660159548630368,0.4718961702938597,0.0015601406945449647
146.5,0.45125451523243687,0.45713473066325977,0.0010877902202565126
147.0,0.4352763015291332,0.4411565169599561,0.0007455693686775899
147.5,0.4179090236228547,0.4237892390536776,1.4194043404636147e-05
148.0,0.3999090194496479,0.4057892348804708,-0.0007253564428822412
148.5,0.38270715641884473,0.38858737184966763,-0.0004313724018816245
149.0,0.366762955781849,0.3726431712126719,0.0009724528171772828
149.5,0.351010969988743,0.3568911854195659,0.0020678519676362583
150.0,0.33585850379618104,0.34173871922700394,0.0029670789605856784
150.5,0.32113690415500146,0.32701711958582436,0.003291326943489825
151.0,0.3064838075409021,0.312364022971725,0.0025756321201990118
151.5,0.29277346661666404,0.29865368204748693,0.0017128195313868
152.0,0.27994029048808583,0.28582050591890873,0.0007777179472867046
152.5,0.26732721409880367,0.27320742952962657,-0.0006389441070696056
153.0,0.2562770674974821,0.262157282928305,-0.0008684911330034684
153.5,0.2444291900327408,0.2503094054635637,-0.001908763594250018
154.0,0.23273215870582695,0.23861237413664985,-0.002458691312233391
154.5,0.2205483162137604,0.2264285316445833,-0.0028602930852503483
155.0,0.20825396096830656,0.21413417639912946,-0.0025371368120900017
155.5,0.1949950924180508,0.2008753078488737,-0.002263581649796731
156.0,0.18157124701190913,0.18745146244273203,-0.0012889280273390702
156.5,0.16788220929400147,0.17376242472482437,0.0001186372373475908
157.0,0.1536600803391854,0.1595402957700083,0.0014282086795756321
157.5,0.13951890732514924,0.14539912275597214,0.0029298780420686787
158.0,0.12559504386180279,0.13147525929262568,0.004413295834923059
158.5,0.11079633187544825,0.11667654730627115,0.004453379020388629
159.0,0.09675865785099053,0.10263887328181343,0.00439701500906256
159.5,0.08256230354455683,0.08844251897537973,0.0031002048840542973
160.0,0.06972903750268661,0.07560925293350951,0.001935538375745935
160.5,0.05744230924935224,0.06332252468017513,1.303305904598595e-05
161.0,0.04648585072176666,0.052366066152589555,-0.001888435438027275
161.5,0.036711508177464915,0.04259172360828781,-0.003865705932718587
162.0,0.028729640090988925,0.034609855521811825,-0.005215891950751887
162.5,0.021276796538081632,0.027157011968904528,-0.00708387476690979
163.0,0.015645793493625562,0.021526008924448458,-0.008045876574433338
163.5,0.011085928756026712,0.016966144186849608,-0.008720314248786255
164.0,0.007265630904115912,0.013145846334938809,-0.009313224051071028
164.5,0.004526621480079197,0.010406836910902093,-0.00936925582338604
165.0,0.0021102059771068923,0.007990421407929788,-0.009548025460017606
165.5,0.00012773069374568053,0.006007946124568576,-0.009654354347248208
166.0,-0.000753813904514447,0.005126401526308449,-0.00895201058509111
166.5,-0.001979334882185483,0.0039008805486374126,-0.00882977982657382
167.0,-0.0029954224974763862,0.0028847929333465096,-0.008689394381787644
167.5,-0.00348672314517714,0.002393492285645756,-0.008179973114820323
168.0,-0.004303303751760307,0.0015769116790625886,-0.008123573539389705
168.5,-0.0041184181556868475,0.0017617972751360483,-0.007171372606720966
169.0,-0.0047957543565731965,0.0010844610742496994,-0.007169594468896764
169.5,-0.004806177036774936,0.0010740383940479594,-0.006575195765737416
170.0,-0.005098082985466221,0.0007821324453566748,-0.006325397999121964
170.5,-0.005366728597661516,0.0005134868331613798,-0.0061063877559704395
171.0,-0.00560552069167702,0.00027469473914587626,-0.005904136269952224
171.5,-0.0055487666761256885,0.0003314487546972073,-0.005446798331777538
172.0,-0.005750580103854319,0.00012963532696857669,-0.005283356550538216
172.5,-0.005834576263363719,4.563916745917683e-05,-0.005033122016876354
173.0,-0.005523375111993905,0.00035684031882899075,-0.004415090950493535
173.5,-0.005556161607288512,0.0003240538235343843,-0.004165394539458177
174.0,-0.0057216848150292805,0.00015853061579361536,-0.004070214266777353
174.5,-0.005773977177816297,0.000106238253006599,-0.0038814377682665387
175.0,-0.005880215430822896,0.0,-0.0037644722514590403
175.5,-0.005732705066183506,0.00014751036463938987,-0.0034101941207079845
176.0,-0.005468063657527465,0.00041215177329543065,-0.00295410754442544
176.5,-0.005434165723448055,0.00044604970737484057,-0.0027432723660037
177.0,-0.00552565433724424,0.0003545610935786559,-0.0026718043186082824
177.5,-0.005071744507444833,0.0008084709233780627,-0.0020686701807892034
178.0,-0.0050449306504434365,0.0008352847803794593,-0.0019063875842977901
178.5,-0.004959233140610206,0.0009209822902126897,-0.0016992616297365863
179.0,-0.005114417713321428,0.0007657977175014674,-0.0017475891207708485
179.5,-0.005101993330024055,0.0007782221007988409,-0.0016436330889657747
180.0,-0.004967436252020354,0.0009127791788025421,-0.001433812676999748
180.5,-0.004664330557700012,0.0012158848731228834,-0.0010727964744870113
181.0,-0.0048095000199263205,0.0010707154108965753,-0.0011785729244267289
181.5,-0.004238961681516071,0.0016412537493068246,-0.0005883279729208529
182.0,-0.004272442897703492,0.001607772533119404,-0.0006228729389281097
182.5,-0.0038727430833886017,0.002007472347434294,-0.0002459065700081034
183.0,-0.003925550272482113,0.0019546651583407827,-0.00034372565800782186
183.5,-0.0042596957623297245,0.0016205196684931714,-0.0007453731563708201
184.0,-0.0037032428019442057,0.00217697262887869,-0.0002786265273960701
184.5,-0.0035056720610080047,0.002374543369814891,-0.0001920964702182607
185.0,-0.003156055502865577,0.002724159927957319,2.6664871738462693e-05
185.5,-0.003241989115290563,0.002638226315532333,-0.0002077311076455206
186.0,-0.003401676237439128,0.002478539193383768,-0.0005305886514315999
186.5,-0.002324252186165528,0.003555963244657368,0.0003725146081305381
187.0,-0.0025646204884601535,0.0033155949423627424,-4.9180329799627075e-05
187.5,-0.0023708250939655944,0.0035093903368573014,-3.9095079381444835e-05
188.0,-0.002006975052333907,0.003873240378488989,0.00014361922266494269
188.5,-0.001983781238419412,0.003896434192403484,-6.623581315957482e-06
189.0,-0.0017259312023012396,0.004154284228521656,9.059397948579188e-05
189.5,-0.001797911026904545,0.004082304403918351,-0.0001243227345104755
190.0,-0.0017044754332823223,0.004175739997540574,-0.00015164073140264307
190.5,-0.0016614091678263812,0.004218806262996515,-0.00020323617282394686
191.0,-0.0013153351634579554,0.00456488026736494,7.744692848547351e-05
191.5,-0.0014200400074897283,0.004460175423333167,-6.104599993248666e-05
192.0,-0.00175056915607654,0.004129646274746356,-0.00039235308551566726
192.5,-0.0015978032115880247,0.004282412219234871,-0.0002069071077672631
193.0,-0.0013248900891515351,0.00455532534167136,0.00013164115339594877
193.5,-0.0017102572578908545,0.004169958172932042,-0.00015653894107461874
194.0,-0.0017082772302657219,0.004171938200557174,-2.803596680954392e-05
194.5,-0.0020536440396618414,0.0038265713911610545,-0.00022045500415343111
195.0,-0.002068905055145043,0.003811310375677853,-5.980898777182414e-05
195.5,-0.002001489385323996,0.0038787260454988997,0.00020260720705553856
196.0,-0.002046315951699399,0.003833899479123497,0.0003677680465493981
196.5,-0.0026263803801137805,0.0032538350507091154,8.486511566161217e-06
197.0,-0.002509928695645347,0.0033702867351775487,0.0003523858334816025
197.5,-0.002629246290435092,0.003250969140387804,0.0004632393393888298
198.0,-0.003158554940669966,0.00272166049015293,0.00016318123658414603
198.5,-0.003154399347814612,0.0027258160830082837,0.00039240414619609197
199.0,-0.00351338445453216,0.0023668309762907356,0.0002514810572173689
199.5,-0.003658468887281817,0.002221746543541079,0.000315106756301919
200.0,-0.004171852729125693,0.0017083627016972027,-7.778098097123258e-07
200.5,-0.004372024790359716,0.0015081906404631803,-1.604077732142808e-05
201.0,-0.004472262278476415,0.001407953152346481,5.511617767268995e-05
201.5,-0.004561109832597346,0.00131910559822555,0.00012364085886935145
202.0,-0.004578531633421994,0.001301683797400902,0.00024943107863601224
202.5,-0.004601117127882881,0.0012790983029400144,0.00035607575546954377
203.0,-0.0045162186681024594,0.0013639967627204364,0.0005566615519829634
203.5,-0.004351680817187343,0.0015285346136355528,0.0008239881179443472
204.0,-0.004687456819092383,0.001192758611730513,0.0005788987293185246
204.5,-0.004334967317158065,0.001545248113664831,0.00101087297142339
205.0,-0.004293316946365263,0.0015868984844576326,0.0011217670317652615
205.5,-0.004700805425939373,0.001179410004883523,0.0007742656685151055
206.0,-0.004800849566431113,0.0010793658643917826,0.0007259297003583693
206.5,-0.005018163847535745,0.0008620515832871512,0.0005529912660443439
207.0,-0.005114090331543364,0.000766125099279532,0.0004950057198238795
207.5,-0.005030365673363679,0.0008498497574592166,0.0006110718390990202
208.0,-0.005044306052515632,0.0008359093783072641,0.0006246388352335747
208.5,-0.004797164189498169,0.0010830512413247265,0.0008951452634838869
209.0,-0.004883193741350499,0.0009970216894723966,0.0008289537890399727
209.5,-0.004711329231747,0.0011688861990758956,0.0010176729384261003
210.0,-0.004644202451964912,0.0012360129788579841,0.0010991442451801338
210.5,-0.004703818546245352,0.0011763968845775437,0.0010517709997420125
211.0,-0.004955166627744198,0.0009250488030786977,0.0008109132677608527
211.5,-0.004858866870725582,0.001021348560097314,0.0009162468302688885
212.0,-0.004710202680352949,0.0011700127504699473,0.0010727371286296708
212.5,-0.004673620387531517,0.0012065950432913787,0.0011161455290476146
213.0,-0.004543693560413876,0.0013365218704090203,0.0012520706458313575
213.5,-0.004560080308417942,0.0013201351224049543,0.0012409962364496486
214.0,-0.0044033449699268255,0.0014768704608960704,0.0014024742135454655
214.5,-0.0044747917242516635,0.0014054237065712323,0.0013352952069754901
215.0,-0.004588853447575975,0.001291361983246921,0.0012251033579224182
215.5,-0.004183085770463773,0.0016971296603591228,0.001634405409376763
216.0,-0.004197930583811609,0.0016822848470112867,0.0016228098813880123
216.5,-0.004245974171622677,0.0016342412592002193,0.001577771195962639
217.0,-0.0040733449470054936,0.0018068704838174023,0.0017531938222149026
217.5,-0.004082263524774718,0.0017979519060481782,0.0017468837560036213
218.0,-0.003972003545912572,0.0019082118849103238,0.0018595889647762959
218.5,-0.003945084029306886,0.0019351314015160102,0.0018888080650767366
219.0,-0.003982647035545486,0.0018975683952774103,0.0018534134868249852
219.5,-0.0036225234371914943,0.0022576919936314016,0.0022155863644335865
220.0,-0.003328569634886489,0.002551645795936407,0.0025114803454223526
