wavelength,absorbance,absorbance_bk,residual_3gauss,Gauss_1,Gauss_2,Gauss_3,Gauss_4,Gauss_fit
117.0,0.20049738603731596,0.20248271064759918,-0.00446855478828892,2.4200365907871637e-07,9.7015880656375e-52,0.20695102343222901,1.6826510652021422e-62,0.2069512654358881
117.5,0.1990174766979494,0.20100280130823261,-0.003881898428892333,4.458842428193753e-07,4.748695930059097e-50,0.20488425385288214,3.267274536676356e-61,0.20488469973712495
118.0,0.1980893034710012,0.20007462808128443,-0.0024989343346898396,8.06077081914036e-07,2.1042772758226718e-48,0.20257275633889235,5.991145005151601e-60,0.20257356241597427
118.5,0.1970013926424855,0.19898671725276873,-0.0010468490582082879,1.4304254906897252e-06,8.459400388140224e-47,0.20003213588548632,1.0386214643514179e-58,0.20003356631097702
119.0,0.19525217926143548,0.1972375038717187,-4.325337424890274e-05,2.492664332205131e-06,3.091531991602987e-45,0.19727826458163542,1.704148540775564e-57,0.1972807572459676
119.5,0.1938292991701692,0.19581462378045242,0.001483188015609177,4.267207372256963e-06,1.0291393071059464e-43,0.19432716855747098,2.6492859086410257e-56,0.19433143576484324
120.0,0.19121946906756096,0.19320479367784418,0.00200269255471075,7.179141727010116e-06,3.12672208464873e-42,0.19119492198140642,3.906423935861004e-55,0.19120210112313343
120.5,0.18929685755027287,0.1912821821605561,0.0033727591926207834,1.1874453223346902e-05,8.68655945943916e-41,0.18789754851471197,5.468984315695817e-54,0.1879094229679353
121.0,0.18621983899539477,0.188205163605678,0.003734916675909833,1.931642139146218e-05,2.2108496653283904e-39,0.1844509305083767,7.2769315389211645e-53,0.18447024692976816
121.5,0.18247110646635784,0.18445643107664106,0.003554790082347409,3.091488063746823e-05,5.16433406813951e-38,0.18087072611365618,9.211533824681612e-52,0.18090164099429365
122.0,0.17953193801117162,0.18151726262145484,0.004296272774821253,4.869547234674933e-05,1.1091383926205327e-36,0.17717229437428683,1.1103908260455077e-50,0.1772209898466336
122.5,0.17377773448204129,0.1757630590923245,0.0023169149169754433,7.55159000351643e-05,2.1939580059963445e-35,0.1733706282753139,1.2758186129117829e-49,0.17344614417534907
123.0,0.16965721584824422,0.17164254045852745,0.00204690950808481,0.00011533530955043706,4.003867034782333e-34,0.1694802956408922,1.3985274712823108e-48,0.16959563095044264
123.5,0.16575947907576427,0.1677448036860475,0.0020558749754049366,0.0001735410093906842,6.752436902701907e-33,0.16551538770125188,1.4639056462685147e-47,0.16568892871064256
124.0,0.16083748045271015,0.16282280506299338,0.0010759963633594494,0.000257333612610897,1.0540844009105187e-31,0.16148947508702302,1.4645277391927773e-46,0.16174680869963393
124.5,0.15533721275968432,0.15732253736996754,-0.00046920076802106636,0.0003761671810916731,1.5255015718323914e-30,0.15741557095689693,1.401517685025747e-45,0.1577917381379886
125.0,0.15048487685418563,0.15247020146446885,-0.0013781345153213165,0.0005422350580264403,2.049959447340525e-29,0.15330610092176372,1.2840498616074219e-44,0.15384833597979017
125.5,0.14653585593989008,0.1485211805501733,-0.0014226837581198248,0.0007709849139212673,2.5617160600215896e-28,0.14917287939437185,1.1272115161628092e-43,0.14994386430829312
126.0,0.1419886179605774,0.14397394257086063,-0.0021347878200924097,0.00108163842330084,2.9813491618085274e-27,0.1450270919676522,9.488974963822063e-43,0.14610873039095304
126.5,0.13780423310944678,0.13978955771973,-0.0025874081457208653,0.0014976824589956904,3.2360815850973927e-26,0.14087928340645517,7.665952107785472e-42,0.14237696586545087
127.0,0.1342929395066551,0.13627826411693833,-0.0025083771742963057,0.002047290465365551,3.280692157978221e-25,0.13673935082586908,5.948137524589253e-41,0.13878664129123464
127.5,0.1306621148785089,0.13264743948879212,-0.0027327277809783,0.002763625645907805,3.1106551474305736e-24,0.13261654162386263,4.436004546284543e-40,0.13538016726977042
128.0,0.12744009529530795,0.12942541990559117,-0.0027790086031706795,0.0036849727727767505,2.762270973566116e-23,0.1285194557359851,3.1821453313329446e-39,0.13220442850876185
128.5,0.125466930811671,0.12745225542195424,-0.0018584401679625218,0.004854643805269203,2.3002942753828826e-22,0.12445605178464757,2.1972486323530874e-38,0.12931069558991676
129.0,0.12332471742682723,0.12531004203711046,-0.0014442196653914607,0.006320604998134558,1.7987269912915644e-21,0.12043365670436737,1.4614265757164397e-37,0.12675426170250192
129.5,0.12143950164647407,0.1234248262567573,-0.0011689326488881213,0.008134780468900104,1.3223960121618413e-20,0.11645897843674531,9.369455018331511e-37,0.12459375890564542
130.0,0.1205356457353984,0.12252097034568163,-0.0003691505692033359,0.0103519996106901,9.151871209622833e-20,0.11253812130419487,5.7940970394853876e-36,0.12289012091488496
130.5,0.11985470456461852,0.12184002917490175,0.00013485231244488027,0.013028573173402605,5.969477118368516e-19,0.10867660368905427,3.458435450050277e-35,0.12170517686245687
131.0,0.11982799636047876,0.12181332097076199,0.0007134386308084995,0.016220504675789782,3.6741357670946145e-18,0.1048793776641637,1.9937852631057697e-34,0.12109988233995349
131.5,0.12010307116848493,0.12208839577876815,0.0009561766167830998,0.0199813689201834,2.1363379783361784e-17,0.10115085024180163,1.1108573812103615e-33,0.12113221916198505
132.0,0.12105233214981428,0.12303765676009751,0.0011828346765666298,0.024359916153868684,1.174824585241102e-16,0.09749490592966208,5.985357582594801e-33,0.12185482208353088
132.5,0.122750304692707,0.12473562930299022,0.0014232121168945983,0.029397486881192956,6.117109166137097e-16,0.09391493030490206,3.1206050339274004e-32,0.12331241718609562
133.0,0.12505246372917167,0.1270377883394549,0.0014986077095270889,0.03512534629002639,3.018985676551433e-15,0.0904138343398984,1.5753024913620597e-31,0.1255391806299278
133.5,0.128061312228937,0.13004663683922021,0.0014904910955292616,0.041562066507755666,1.4137703278036096e-14,0.08699407923592115,7.704061734272801e-31,0.12855614574369095
134.0,0.13162172608946765,0.13360705069975087,0.0012382517245518587,0.048711097431933525,6.288559459294197e-14,0.08365770154320261,3.652204982749683e-30,0.13236879897519901
134.5,0.13564161686150555,0.13762694147178878,0.0006619320262547523,0.05655867107760438,2.659621704567291e-13,0.08040633836766367,1.67924468048898e-29,0.13696500944553403
135.0,0.14039906586742834,0.14238439047771156,7.095877234475356e-05,0.06507217921864694,1.0705758716138361e-12,0.0772412524856493,7.492644507855028e-29,0.1423134317053668
135.5,0.1461730836137467,0.14815840822402992,-0.00020409824794281883,0.07419914925955311,4.105511308050357e-12,0.07416335720831413,3.2460303731545635e-28,0.14836250647197274
136.0,0.15193507990897728,0.1539204045192605,-0.001119755574321507,0.08386691922193182,1.501355919592346e-11,0.07117324085663664,1.366141157731496e-27,0.155040160093582
136.5,0.15890966694037414,0.16089499155065737,-0.0013592799303274727,0.09398308070221453,5.2404952371384763e-11,0.06827119072636535,5.588415813500685e-27,0.16225427148098484
137.0,0.16674748644417556,0.16873281105445878,-0.0011611261354671498,0.10443672057572621,1.7475531518442156e-10,0.0654572164394444,2.2230644402455788e-26,0.16989393718992593
137.5,0.17512493451199235,0.17711025912227557,-0.000721264574687519,0.11510045054513987,5.572456139520242e-10,0.06273107259457761,8.604016257188973e-26,0.1778315236969631
138.0,0.18362296233453623,0.18560828694481946,-0.0003171665488851394,0.12583317114854206,1.7005985701235836e-09,0.06009228064456396,3.2415111987211756e-25,0.1859254534937046
138.5,0.19255094392027927,0.1945362685305625,0.0005126371744507141,0.1364834764429758,4.971284240698076e-09,0.057540149941851755,1.1893181253569409e-24,0.19402363135611178
139.0,0.2004953416183374,0.20248066622862063,0.000513284379965645,0.14689357001026582,1.393195354798982e-08,0.055073797906435636,4.251632310414591e-24,0.20196738184865498
139.5,0.209156246773128,0.21114157138341122,0.0015458300660440571,0.1569035345737192,3.7461875182233816e-08,0.05269216928177279,1.48156058622285e-23,0.20959574131736716
140.0,0.21597851371137017,0.2179638383216534,0.0012139089443560236,0.16635577819469047,9.672775886268412e-08,0.05039405445484803,5.0348223440619496e-23,0.21674992937729737
140.5,0.22201470176090157,0.2240000263711848,0.0007222086497798985,0.1750994708797558,2.40015718830166e-07,0.04817810682593027,1.6693254345565572e-22,0.2232778177214049
141.0,0.2273919401452809,0.22937726475556414,0.0003390458870922708,0.18299478686240297,5.727841200333927e-07,0.04604285922194887,5.402283045899451e-22,0.22903821886847187
141.5,0.2312658629383624,0.23325118754864563,-0.0006536469004266854,0.18991677946390917,1.3156303048039058e-06,0.04398673935485833,1.707170043417952e-21,0.2339048344490723
142.0,0.23445393138797796,0.23643925599826118,-0.0013304752200855308,0.19575873623169784,2.910653760271218e-06,0.04200808433288861,5.2701067099762006e-21,0.2377697312183467
142.5,0.23719915385094548,0.2391844784612287,-0.001361773073397965,0.20043489037003284,6.206926345469831e-06,0.040105154238248356,1.5899437431148473e-20,0.24054625153462666
143.0,0.23890079538603695,0.24088611999632017,-0.0012851904229992939,0.20388239826762566,1.276736194979191e-05,0.038276144789744,4.689612182531909e-20,0.24217131041931947
143.5,0.23989585677842537,0.2418811813887086,-0.0007258969925553471,0.20606252989820947,2.534937014468336e-05,0.0365191991129098,1.352865622442203e-19,0.24260707838126394
144.0,0.23952188747124983,0.24150721208153306,-0.00033487835446410763,0.20696105667301415,4.8615119256457765e-05,0.03483241864372655,3.818575692387067e-19,0.24184209043599716
144.5,0.23824627488002545,0.24023159949030867,0.0003397520390752973,0.20658785772210003,9.011653429361973e-05,0.03321387319483973,1.0549706861786754e-18,0.23989184745123338
145.0,0.2354728863783173,0.2374582109886005,0.0006592356217397233,0.20497579859997273,0.00016156655141355756,0.03166161021547449,2.8538537841307524e-18,0.2367989753668608
145.5,0.23134040869274708,0.2333257333030303,0.0006927614508396851,0.20217896445106953,0.0002803441231173775,0.03017366327800371,7.561925579280253e-18,0.23263297185219062
146.0,0.22627555040897385,0.22826087501925707,0.0007713799215920969,0.1982703515835971,0.0004710836886409979,0.028748059825426848,1.9633441987333433e-17,0.22748949509766497
146.5,0.21979044844862636,0.22177577305890958,0.000286730552726322,0.19333913651956103,0.0007670777717182236,0.027382828214903954,4.996603879736935e-17,0.22148904250618326
147.0,0.2128433870049164,0.21482871161519962,5.396279596531217e-05,0.18748764972471368,0.001211095001517729,0.026076004093002786,1.2468552052335604e-16,0.2147747488192343
147.5,0.2050098962640969,0.20699522087438013,-0.0005137180277564601,0.18082818262098085,0.0018551201426435938,0.024825636138511832,3.0518636495208015e-16,0.2075089389021366
148.0,0.19707181538012927,0.1990571399904125,-0.0008109049963149484,0.17347975176198926,0.00275850201616132,0.023629791208576136,7.329339792482509e-16,0.19986804498672744
148.5,0.18923813829456868,0.1912234629048519,-0.0008121227531526776,0.1655649341117235,0.003984092622708773,0.022486558923570602,1.7276475276938707e-15,0.19203558565800458
149.0,0.1822114872964591,0.18419681190674234,3.6797959389878176e-06,0.1572068733020785,0.005592203083145801,0.021394055725575054,3.998280709950915e-15,0.18419313211080335
149.5,0.17500570488077177,0.176991029491055,0.00048147750044755244,0.1485265397511484,0.007632583794874546,0.02035042844457541,9.087700141369196e-15,0.17650955199060744
150.0,0.16797632252567807,0.1699616471359613,0.0008323715395598674,0.13964030880661651,0.010135109384129173,0.019353857405635437,2.0292215071420472e-14,0.16912927559640142
150.5,0.16109588481542736,0.16308120942571058,0.0009204252215052056,0.13065790177984632,0.013100323315047527,0.018402559109267018,4.4527612453525085e-14,0.16216078420420538
151.0,0.1548361105572422,0.15682143516752542,0.0011545761297715174,0.12168071587516735,0.0164913546463708,0.01749478851611971,9.604641352040995e-14,0.1556668590377539
151.5,0.1486548938591174,0.15064021846940062,0.0009819830113883266,0.11280055144773024,0.020228843044159464,0.016628840965918885,2.0370872359617935e-13,0.1496582354580123
152.0,0.1427792292709169,0.14476455388120013,0.0006724555199350279,0.10409872940299347,0.024190315198516058,0.01580305375933063,4.249496344329777e-13,0.1440920983612651
152.5,0.13678905943999956,0.13877438405028278,-0.00010193088409873874,0.095645578341634,0.02821492916173132,0.015015807430144072,8.721375966793216e-13,0.13887631493438152
153.0,0.132191223057099,0.1341765476673822,0.0002970531364824003,0.08750026052007613,0.032113707275223106,0.01426552673383913,1.7614503826286295e-12,0.1338794945308998
153.5,0.1264731823147457,0.12845850692502891,-0.00048752569897522746,0.07971089792495437,0.035684453318268326,0.013550681377279489,3.501947611765543e-12,0.12894603262400414
154.0,0.12119719863474653,0.12318252324502975,-0.0007319001022348809,0.0723149546813144,0.03872968214615796,0.012869786512937126,6.8551433710250415e-12,0.12391442334726463
154.5,0.11530824903303447,0.11729357364331769,-0.0013429281236924523,0.06533982943669937,0.041075269297365116,0.012221403019729566,1.3216086299843088e-11,0.11863650176701014
155.0,0.11006991475289934,0.11205523936318257,-0.0009398058513320762,0.05880361100165888,0.04258729659650977,0.011604137591245721,2.5100266733221517e-11,0.11299504521451464
155.5,0.10397719867317427,0.1059625232834575,-0.0009548582963705005,0.0527159520361359,0.043184786845865096,0.011016642650853732,4.697325750561322e-11,0.106917381579828
156.0,0.09776014877228435,0.09974547338256758,-0.0006378077488360112,0.04707901857400882,0.042846646358820004,0.010457616111933316,8.664143991940966e-11,0.10038328113140359
156.5,0.09109915821381716,0.09308448282410038,-0.0003418356046338139,0.041888477292582695,0.04161203997834517,0.009925801000260432,1.5754591212559753e-10,0.0934263184287342
157.0,0.08383848574184577,0.08582381035212899,-0.0003050878434599086,0.037134487293444554,0.03957442566526091,0.00941998495439733,2.824861050732219e-10,0.0861288981955889
157.5,0.07720489057976675,0.07919021519004997,0.0005781655173809075,0.032802668430889165,0.03687038112340098,0.008938999618809715,4.99569204309823e-10,0.07861204967266906
158.0,0.07033205429196865,0.07231737890225187,0.0012956302258254893,0.028875023612032702,0.03366500424947934,0.008481719943346526,8.715678187176001e-10,0.07102174867642638
158.5,0.06313645179719014,0.06512177640747337,0.0016079436556287324,0.025330797756074344,0.03013597009367798,0.00804706340168126,1.5004110500391975e-09,0.06351383275184463
159.0,0.05601767670798427,0.0580030013182675,0.0017634822085170823,0.02214726104808253,0.02645826637206489,0.00763398914032196,2.5492810392771908e-09,0.05623951910975042
159.5,0.048820543462087286,0.050805868072370516,0.0014726921556324699,0.01930040861542762,0.02279126595665777,0.007241497068859046,4.275793616092567e-09,0.049333175916738047
160.0,0.04196471592846088,0.04395004053874411,0.00104659828712797,0.016765572700270626,0.019269235569048925,0.006868626901227763,7.081068819898612e-09,0.04290344225161614
160.5,0.0354935729812446,0.03747889759152783,0.00045073091067440035,0.014517946749516609,0.015995751193209038,0.006514457156920371,1.1581207408988106e-08,0.03702816668085343
161.0,0.02953328264279583,0.03151860725307906,-0.00023444759320860598,0.012533023580452704,0.013041908425702783,0.006178104130291139,1.8709841037372638e-08,0.03175305484628767
161.5,0.02424928784614169,0.026234612456424916,-0.0008588550300862446,0.010786951921094195,0.010447764867006867,0.005858720835349126,2.9863060970068036e-08,0.02709346748651116
162.0,0.02005665684734476,0.022041981457627986,-0.000996554182189864,0.009256817206562708,0.008226175399345951,0.005555495932737296,4.7101171894277915e-08,0.02303853563981785
162.5,0.016247904513277612,0.01823322912356084,-0.001323433806809788,0.007920853589722018,0.006368083270366512,0.005267652644939984,7.34253421135165e-08,0.019556662930370627
163.0,0.012846215356169756,0.014831539966452985,-0.0017699981536148587,0.006758594758898927,0.004848382544766709,0.004994447665151842,1.1315125036534884e-07,0.016601538120067844
163.5,0.009602548099312986,0.011587872709596214,-0.0025300658907686548,0.005750971415671148,0.0036316247139124703,0.00473517006467294,1.724061083096175e-07,0.014117938600364869
164.0,0.007754259362855678,0.009739583973138906,-0.0023072322839574177,0.004880363220011613,0.002677053054200142,0.004489140203165663,2.597797189039932e-07,0.012046816257096324
164.5,0.005907188045103647,0.007892512655386876,-0.0024368630506112557,0.0041306127246289355,0.0019426671715882919,0.004255708645621625,3.8716415927933657e-07,0.010329375705998131
165.0,0.004577790746779472,0.0065631153570627,-0.0023469323438352913,0.003487008356317936,0.0013882134353663206,0.004034255089432694,5.708197810412708e-07,0.008910047700897991
165.5,0.0036585895750529855,0.005643914185336213,-0.002094493933861725,0.0029362429143137297,0.0009771451934257015,0.0038241873045440056,8.32706914501465e-07,0.007738408119197938
166.0,0.002791244437630692,0.004776569047913921,-0.0019936198693320563,0.002466353391423116,0.0006776933142830726,0.0036249400892820554,1.2021222577332915e-06,0.006770188917245977
166.5,0.002274939959889648,0.004260264570172876,-0.00170731073725712,0.0020666472228228947,0.00046323616484311096,0.0034359742440984325,1.7176756655577286e-06,0.005967575307429996
167.0,0.0017233559734458083,0.0037086805837290363,-0.0015903120699397458,0.001727619362001487,0.0003121680903794394,0.0032567755651467935,2.42963614106268e-06,0.005298992653668782
167.5,0.0015139459394377163,0.0034992705497209446,-0.0012392985949248782,0.0014408638983525474,0.00020744872245222247,0.003086853859314771,3.4026645262829047e-06,0.004738569144645823
168.0,0.0011706389383834212,0.0031559635486666494,-0.0011094642287579766,0.001198983284876295,0.00013598357641977265,0.0029257419820641773,4.718934064381085e-06,0.004265427777424626
168.5,0.0016380753549124936,0.0036233999651957218,-0.0002395231573549669,0.0009954976500369552,8.794895507108102e-05,0.002772994899187354,6.481618255298743e-06,0.0038629231225506887
169.0,0.0012492361691575186,0.003234560779440747,-0.00028334076042700346,0.0008247561329298681,5.613793541022838e-05,0.0026281887733664053,8.818698161248912e-06,0.0035179015398677503
169.5,0.00116889866529703,0.003154223275580258,-6.580874419217543e-05,0.0006818517093671941,3.537322531771721e-05,0.0024909200762213255,1.1887008866196644e-05,0.0032200320197724335
170.0,0.0010536952122302727,0.003039019822513501,7.778942451818708e-05,0.0005625405689399056,2.200869471680225e-05,0.002360804726352116,1.58764079864901e-05,0.002961230397995314
170.5,0.0008404000318836094,0.0028257246421668374,9.054218852210362e-05,0.00046316675775506496,1.352453280835307e-05,0.0022374772537183895,2.1013909362926283e-05,0.002735182453644734
171.0,0.0007724388028165187,0.002757763413099747,0.0002208029362025894,0.0003805925148023981,8.210387223061442e-06,0.0021205899905542567,2.7567584317441426e-05,0.0025369604768971576
171.5,0.0005626151254697757,0.0025479397357530036,0.00018521778287145614,0.0003121344970026086,4.925173324139549e-06,0.0020098122888873127,3.584999366748638e-05,0.0023627219528815475
172.0,0.0005369651850521991,0.0025222897953354273,0.000312813151897478,0.00025550590344056195,2.920096312999972e-06,0.0019048297646155736,4.622087906881393e-05,0.0022094766434379493
172.5,0.00058397170473613,0.0025692963150193582,0.0004943880123648779,0.0002087643672734634,1.7115518432210978e-06,0.001805343567994911,5.9088815542884934e-05,0.0020749083026544803
173.0,0.0008459904872492588,0.002831315097532487,0.0008740765586690439,0.00017026537848386487,9.919683739038785e-07,0.0017110696803005283,7.491151170514591e-05,0.001957238538863443
173.5,0.0007203776446135812,0.0027057022548968093,0.0008505800361070621,0.00013862092637606836,5.686124791951402e-07,0.0016217382363481428,9.419444358634099e-05,0.0018551222187897472
