wavelength,absorbance,absorbance_bk,residual_3gauss,Gauss_1,Gauss_2,Gauss_3,Gauss_4,Gauss_fit
117.0,0.6584265756441301,0.6598111064015376,-0.013439693693491295,1.0950372280839272e-06,5.992356324509234e-56,0.6732497050578008,2.1569328041117798e-111,0.6732508000950289
117.5,0.6572053465471228,0.6585898773045303,-0.008992642751614821,1.987224241883928e-06,4.291525885487297e-54,0.6675805328319032,5.22524763064219e-109,0.6675825200561452
118.0,0.6552298237817832,0.6566143545391907,-0.004473402623716316,3.539680318163887e-06,2.754525209908255e-52,0.6610842174825888,1.137819789973562e-106,0.661087757162907
118.5,0.6491656664072677,0.6505501971646752,-0.0032643247034109812,6.1909512253573955e-06,1.5882048368786504e-50,0.6538083309168609,2.2317806939163504e-104,0.6538145218680862
119.0,0.6445018549195354,0.6458863856769429,7.406787696861983e-05,1.0636523017584328e-05,8.244631935815695e-49,0.6458016812769567,3.95125605288722e-102,0.6458123177999743
119.5,0.63812297077998,0.6395075015373876,0.0023756006744803937,1.795806846360528e-05,3.861875902347053e-47,0.6371139427944436,6.327007078739992e-100,0.6371319008629072
120.0,0.6318646442231329,0.6332491749805405,0.005424063698362458,2.9805875231080058e-05,1.6357713006114728e-45,0.627795305406947,9.181106401427208e-98,0.627825111282178
120.5,0.6241501350399915,0.625534665797399,0.007589869501772206,4.865049291505764e-05,6.278519956404032e-44,0.6178961458027118,1.2096509215456823e-95,0.6179447962956268
121.0,0.6134817238703464,0.6148662546277539,0.007321411579683801,7.812188742270577e-05,2.1882373329707562e-42,0.6074667211606474,1.44980452332813e-93,0.6075448430480701
121.5,0.6036210307475781,0.6050055615049856,0.008325219180096988,0.00012345584331223384,6.939136502697219e-41,0.5965568864815765,1.583583294826821e-91,0.5966803423248886
122.0,0.5916969899821821,0.5930815207395896,0.007673617235008812,0.0001920674419980336,2.0060495143874237e-39,0.5852158360625828,1.579189881280883e-89,0.5854079035045808
122.5,0.5799673205798985,0.581351851337306,0.007565712465062879,0.0002942695198065953,5.297059871542441e-38,0.5734918693524366,1.4402978971581693e-87,0.5737861388722432
123.0,0.5665002258662856,0.5678847566236931,0.006008426076503426,0.0004441494042175572,1.2799644502436205e-36,0.5614321811429721,1.2034844402206664e-85,0.5618763305471897
123.5,0.5514734851548141,0.5528580159122216,0.003114730784375852,0.0006606093283497981,2.8354694345639477e-35,0.549082675799496,9.228433410363447e-84,0.5497432851278458
124.0,0.5374978588938949,0.5388823896513024,0.001426020350718149,0.0009685642879734153,5.768890041075488e-34,0.5364878050126108,6.504710205533587e-82,0.5374563693005843
124.5,0.5228348231418422,0.5242193538992497,-0.0008713500377506289,0.0014002755734989387,1.0798374587369409e-32,0.5236904283635013,4.221218769980137e-80,0.5250907039370003
125.0,0.5092115464598087,0.5105960772172162,-0.0021323976459354244,0.001996779029201008,1.8627940001283089e-31,0.5107316958339506,2.5260382773912646e-78,0.5127284748631517
125.5,0.4947387162251171,0.4961232469825246,-0.004337049295164819,0.002809345018200099,2.9664454963691386e-30,0.49765095125948927,1.3960517235143152e-76,0.5004602962776894
126.0,0.48181314630262817,0.48319767706003564,-0.00518886198512325,0.003900883427419049,4.367989055484268e-29,0.4844856556177398,7.136338995928201e-75,0.4883865390451589
126.5,0.46919299270621734,0.4705775234636248,-0.00604098922266616,0.005347183723981028,5.956525585949812e-28,0.47127132896230994,3.3790961835748655e-73,0.47661851268629096
127.0,0.4573657590970508,0.45875028985445826,-0.00652907935894953,0.007237859459858287,7.534388588445169e-27,0.4580415097535495,1.4842317492146344e-71,0.4652793692134078
127.5,0.44715940555270006,0.4485439363101075,-0.005960645426741018,0.009676851437640792,8.853372374527512e-26,0.44482773029920775,6.056064516222921e-70,0.45450458173684855
128.0,0.43743878049359336,0.4388233112510008,-0.005618532564490297,0.01278233681717436,9.678825597468121e-25,0.4316595069983168,2.2986101088009532e-68,0.4444418438154911
128.5,0.4299413004589956,0.43132583121640306,-0.0039244082371565625,0.01668589537494779,9.858776399269882e-24,0.4185643440786118,8.12665513283608e-67,0.4352502394535596
129.0,0.42341696640566606,0.4248014971630735,-0.002297053361295376,0.021530800995120426,9.369772470397266e-23,0.40556774952924846,2.6798052933451516e-65,0.4270985505243689
129.5,0.4181297181250423,0.41951424888244976,-0.0006483505332489647,0.027469337460915993,8.3204422187491e-22,0.3926932619547827,8.252785961280414e-64,0.4201625994156987
130.0,0.4142109941442216,0.41559552490162904,0.000973955046067454,0.034659082744296785,6.913015197802636e-21,0.3799624871112648,2.376583253685691e-62,0.4146215698555616
130.5,0.41146012808460786,0.4128446588420153,0.00219135200590842,0.043258163906891314,5.381109467144781e-20,0.3673951429292156,6.407641457395699e-61,0.4106533068361069
131.0,0.41068660122976336,0.4120711319871708,0.003642467474025357,0.05341955263360228,3.9293998142380356e-19,0.3550091118795432,1.619430862720631e-59,0.40842866451314547
131.5,0.4108830561663956,0.41226758692380305,0.0041625421519083106,0.06528454517638065,2.6951643878562453e-18,0.3428204995955141,3.841147316062841e-58,0.40810504477189474
132.0,0.41321710049733046,0.4146016312547379,0.004782287691355358,0.07897564483794223,1.7385673408387544e-17,0.33084369872544034,8.560485799447912e-57,0.40981934356338257
132.5,0.41710729509401534,0.4184918258514228,0.004811234681711574,0.09458913411433571,1.0560290467809463e-16,0.3190914570553754,1.7946047574109145e-55,0.41368059116971123
133.0,0.4228280092581791,0.42421254001558656,0.004449909920516859,0.1121876810872763,6.047247659509688e-16,0.3075749490077928,3.54287633060311e-54,0.4197626300950697
133.5,0.43064566580758934,0.4320301965649968,0.003932982031537191,0.1317933648435515,3.2684775612237736e-15,0.2963038496899048,6.593769588428443e-53,0.4280972145334596
134.0,0.44009357401891536,0.4414781047763228,0.002810171242276671,0.1533815228009873,1.6693083713457156e-14,0.2852864107330422,1.1581537006859532e-51,0.43866793353404615
134.5,0.4512579778950431,0.4526425086524506,0.0012371558878243594,0.17687581553287576,8.065249185183033e-14,0.27452953723166984,1.9217983772895785e-50,0.45140535276462623
135.0,0.4645319859893745,0.465916516746782,-0.00026721900455495273,0.20214487059456426,3.690333864543093e-13,0.2640388651564036,3.015809230897625e-49,0.4661837357513369
135.5,0.47958186696575994,0.4809663977231674,-0.0018532476385734187,0.2290008066807551,1.6008350004477356e-12,0.2538188386793849,4.4801285520444467e-48,0.4828196453617408
136.0,0.4964379891135682,0.49782251987097564,-0.0032501230960350624,0.25719985604842543,6.590480244358502e-12,0.2438727869119948,6.306594742280534e-47,0.5010726429670107
136.5,0.5149892085002729,0.5163737392576804,-0.004274461753721037,0.28644520137175694,2.5776505744904698e-11,0.23420299961386798,8.420460078382194e-46,0.5206482010114014
137.0,0.5354222824067043,0.5368068131641118,-0.004396017920116346,0.3163920295001629,9.587492399346616e-11,0.22481080148819035,1.0673904495917376e-44,0.5412028310842282
137.5,0.5579674342147405,0.559351964972148,-0.0029993465930941987,0.34665468649466974,3.394598169358765e-10,0.21569662473111267,1.2857581306330127e-43,0.5623513115652422
138.0,0.5811008058115329,0.5824853365689404,-0.001190447927407856,0.3768157037984449,1.1452319455365324e-09,0.20686007955267133,1.473117968429155e-42,0.5836757844963483
138.2,0.5894950674845771,0.5908795982419847,-0.001277200201742379,0.38875383062450436,1.8380352988791715e-09,0.2034029659811874,3.85357105189103e-42,0.592156798443727
138.4,0.5988976781116253,0.6002822088690328,-0.00028472490940811834,0.40057693751756185,2.9278539898204677e-09,0.19998999333302503,1.0002168439829364e-41,0.600566933778441
138.6,0.6076542365833468,0.6090387673407544,0.0001614905733610117,0.41225623234343256,4.629198838129284e-09,0.19662103979476198,2.576048655528972e-41,0.6088772767673933
138.8,0.6164723517384189,0.6178568824958264,0.0007979790608469983,0.4237629289186108,7.265216728436958e-09,0.1932959672511519,6.583654408886494e-41,0.6170589034349794
139.0,0.6252314612458529,0.6266159920032605,0.0015329833040897967,0.4350683754618432,1.131886510164726e-08,0.19001462191846236,1.6697706624251276e-40,0.6250830086991707
139.2,0.6337080276516377,0.6350925584090452,0.0021715227976688567,0.446144183138592,1.750627744421828e-08,0.186776834966507,4.20288051348443e-40,0.6329210356113764
139.4,0.642025995481058,0.6434105262384655,0.002865722391044767,0.45696235383712924,2.6881046798194426e-08,0.1835824231292447,1.0499317482835856e-39,0.6405448038474207
139.6,0.6496388132950616,0.6510233440524691,0.003096707443585922,0.46749540632387265,4.09811952804924e-08,0.18043118930381524,2.6032873385224433e-39,0.6479266366088832
139.8,0.6573420267330853,0.6587265574904928,0.0036870723761629476,0.47771649994189364,6.203453943318269e-08,0.1773229231378968,6.406977174455432e-39,0.6550394851143299
140.0,0.6635685267318545,0.664953057489262,0.003096007600669304,0.48759955504006164,9.324321087590154e-08,0.17425740160532022,1.5652262293635744e-38,0.6618570498885927
140.2,0.6700965273004842,0.6714810580578917,0.003127159962551196,0.49711936935101,1.3917448229840087e-07,0.17123438956984824,3.7959159008840717e-38,0.6683538980953405
140.4,0.6757951437293984,0.6771796744868059,0.002674098283577342,0.5062517295731092,2.0629303501553279e-07,0.16825364033708445,9.138902564138384e-38,0.6745055762032286
140.6,0.68053093731304,0.6819154680704476,0.0016267507414211568,0.5149735174548994,3.036796541031887e-07,0.1653148961944729,2.184398195961744e-37,0.6802887173290264
140.8,0.6857035985042741,0.6870881292616816,0.0014069865998084241,0.5232628097291963,4.4399331880270916e-07,0.16241788893935818,5.183844778148935e-37,0.6856811426618732
141.0,0.6894159708974772,0.6908005016548847,0.00013854521404332854,0.5310989712977039,6.447480192390947e-07,0.15956234039511824,1.2214523552613234e-36,0.6906619564408414
141.2,0.6932080500829619,0.6945925808403695,-0.0006190531926952847,0.5384627411251243,9.299925816704297e-07,0.1567479629153587,2.8577695767783777e-36,0.6952116340330647
141.4,0.6962935996116713,0.6976781303690788,-0.0016339723719559496,0.5453363103633725,1.3325014534613086e-06,0.15397445987620875,6.639350872217114e-36,0.6993121027410347
141.6,0.6990515666096684,0.7004360973670759,-0.0025107176877948723,0.5517033922913311,1.8966067997451166e-06,0.15124152615673997,1.5317687220857838e-35,0.7029468150548708
141.8,0.701773112441979,0.7031576431993866,-0.0029431709580056697,0.5575492837225868,2.681827247243554e-06,0.1485488486075581,3.5095481033196636e-35,0.7061008141573922
142.0,0.7038656367977806,0.7052501675551881,-0.0035106240305179393,0.5628609176022669,3.767475811635315e-06,0.1458961065076275,7.98584213752107e-35,0.708760791585706
142.2,0.70636951524305,0.7077540460004575,-0.0031610910509609624,0.5676269065837023,5.258458324199041e-06,0.14328297200939202,1.8047734343674476e-34,0.7109151370514185
142.4,0.7079280264857961,0.7093125572432036,-0.0032414232775858087,0.5718375774454555,7.292503059744722e-06,0.14070911057227423,4.0511457616899544e-34,0.7125539805207894
142.6,0.7089289460348385,0.710313476792246,-0.00335574996195509,0.5754849962786609,1.0049090901350078e-05,0.13817418138463888,9.032476939309878e-34,0.7136692267542011
142.8,0.7098905168399089,0.7112750475973164,-0.0029795350014103494,0.5785629844429521,1.376038146239933e-05,0.13567783777431236,2.0004610742731694e-33,0.7142545825987268
143.0,0.7102567168805752,0.7116412476379828,-0.0026643297775154062,0.5810671253558685,1.872445185811795e-05,0.13321972760777154,4.4011673291544564e-33,0.7143055774154982
143.2,0.7103478526317438,0.7117323833891513,-0.0020871937125355178,0.5829947622450515,2.5321178532545217e-05,0.1307994936781027,9.619229994886256e-33,0.7138195771016869
143.4,0.7100759996693956,0.7114605304268031,-0.001335261804653709,0.5843449870540983,3.4031095496912454e-05,0.1284167740818616,2.0886581004959406e-32,0.7127957922314568
143.6,0.7087084766738676,0.7100930074312751,-0.0011422734558910186,0.5851186207513018,4.545755091228055e-05,0.12607120258495205,4.5057680057372374e-32,0.7112352808871661
143.8,0.7069528357169016,0.7083373664743091,-0.0008035803026986699,0.5853181853451119,6.0352454242017394e-05,0.12376240897765395,9.657492512435523e-32,0.7091409467770078
144.0,0.7049851822505268,0.7063697130079343,-0.0001478202258680117,0.5849478679607029,7.964585414978688e-05,0.12149001941894971,2.05671216173525e-31,0.7065175332338023
144.2,0.701914111682488,0.7032986424398955,-7.297121749139102e-05,0.5840134773781811,0.00010447950892949326,0.1192536567702763,4.352267551493329e-31,0.7033716136573869
144.4,0.698643261206735,0.7000277919641426,0.00031621306797713356,0.5825223934744478,0.00013624450285319451,0.11705294091886438,9.151868852010747e-31,0.6997115788961654
144.6,0.6947117423795712,0.6960962731369787,0.0005486511784600356,0.5804835100473291,0.0001766228203816495,0.1148874890908079,1.9123843256803973e-30,0.6955476219585187
144.8,0.6900880586882926,0.6914725894457001,0.0005808691458378812,0.5779071715321732,0.0002276326136680026,0.11275691615402107,3.9712813095808774e-30,0.6908917202998622
145.0,0.6851638619401996,0.6865483926976071,0.00079077695222185,0.5748051041475838,0.0002916766865508634,0.11066083491125063,8.195868372107878e-30,0.6857576157453853
145.2,0.6797670529113946,0.6811515836688021,0.0009907917858555937,0.5711903420282458,0.0003715934714091254,0.10859885638329157,1.681073715050827e-29,0.6801607918829465
145.4,0.6738948932978596,0.6752794240552671,0.001160975556575794,0.5670771489189903,0.00047070949711601695,0.10657059008258499,3.427081791547811e-29,0.6741184484986913
145.6,0.6679421093486784,0.6693266401060859,0.0016771677707670962,0.5624809360153163,0.0005928920426414121,0.10457564427736098,6.944267430526135e-29,0.6676494723353188
145.8,0.6610344639549728,0.6624189947123803,0.0016445915741052364,0.5574181765417013,0.0007426003500805195,0.10261362624649321,1.398655791253314e-28,0.6607744031382751
146.0,0.6539200433175575,0.655304574074965,0.0017891804450124171,0.5519063176603638,0.0009249334443439068,0.10068414252524491,2.8002431704427753e-28,0.6535153936299526
146.2,0.6463958420628516,0.6477803728202591,0.0018842110898283915,0.5459636902998061,0.0011456722885502275,0.09878679914207446,5.573128306158291e-28,0.6458961617304307
146.4,0.6380111456157321,0.6393956763731397,0.0014537433306675007,0.5396094174847662,0.0014113137110328723,0.09692120184667309,1.1026520849138223e-27,0.6379419330424722
146.6,0.6300286922249617,0.6314132229823692,0.0017338516248168734,0.5328633217374343,0.0017290932906959162,0.09508695632942211,2.168861227054376e-27,0.6296793713575524
146.8,0.6212774772304356,0.6226620079878431,0.001525513248713417,0.5257458321040267,0.0021069942026752247,0.0932836684324277,4.241273964581464e-27,0.6211364947391297
147.0,0.6117557481047282,0.6131402788621357,0.0007977042410691748,0.5182778913417511,0.00255373892698494,0.09151094435233054,8.246118155968849e-27,0.6123425746210666
147.2,0.6025024560874208,0.6038869868448283,0.0005589715012606078,0.5104808637786818,0.0030787607298365083,0.08976839083504941,1.5940747333663422e-26,0.6033280153435677
147.4,0.592444318570167,0.5938288493275745,-0.0002953623287633711,0.502376444333926,0.0036921519597628,0.08805561536264904,3.064014400770699e-26,0.5941242116563379
147.6,0.5823471160289282,0.5837316467863357,-0.0010317351786672813,0.4939865691576551,0.004404586474844278,0.08637222633250365,5.856159495753693e-26,0.584763381965003
147.8,0.5726095167748377,0.5739940475322453,-0.001284327962539411,0.48533332832067494,0.005227213945180173,0.0847178332289296,1.1129913856038935e-25,0.5752783754947847
148.0,0.5623223437894835,0.5637068745468911,-0.001995577554777639,0.4764388809515951,0.006171524362601335,0.08309204678747233,2.103508326607255e-25,0.5657024521016687
148.2,0.55224995150579,0.5536344822631976,-0.0024345519122256354,0.467325373186426,0.007249181836985885,0.08149447915201133,3.953545860451138e-25,0.5560690341754232
148.4,0.5426018869191782,0.5439864176765857,-0.0024250132666355784,0.4580148592613433,0.008471827657010152,0.07992474402486793,7.389854716321057e-25,0.5464114309432213
148.6,0.5339389281412473,0.5353234588986548,-0.0014390775816378598,0.4485292260443228,0.00985085362588584,0.07838245681008406,1.3737507103747082e-24,0.5367625364802927
148.8,0.5249345811414848,0.5263191118988924,-0.0008353919410024613,0.4388901212659784,0.011397147823876708,0.07686723475003975,2.5399144140410632e-24,0.5271545038398948
149.0,0.5161449857589857,0.5175295165163932,-8.888237857229697e-05,0.42911888567454054,0.013120816164833893,0.07537869705559112,4.6707373741275144e-24,0.5176183988949655
149.2,0.5075735948919433,0.5089581256493508,0.0007742869535111163,0.4192364893044834,0.01503088436147068,0.07391646502988565,8.543247653034357e-24,0.5081838386958397
149.4,0.49904945287618974,0.5004339836335973,0.0015553632892893465,0.4092634720136043,0.01713498614467273,0.07248016218603089,1.554345546339711e-23,0.4988786203443079
149.6,0.4906877433988339,0.4920722741562414,0.0023439266461871555,0.3992198884091773,0.019439044742097702,0.07106941435877921,2.8130335298458805e-23,0.48972834751005423
149.8,0.48262998692865133,0.4840145176860588,0.0032584549708574717,0.3891252572506436,0.021946955654167478,0.06968384981039025,5.064313858224778e-23,0.4807560627152013
150.0,0.47348734157037303,0.4748718723277805,0.00288997799783669,0.3789985153843603,0.02466027961474655,0.06832309933083697,9.069851549109191e-23,0.4719818943299438
150.5,0.4536092372667689,0.45499376802417635,0.003978493290021368,0.3536597250023127,0.032328164085542066,0.06502738564630024,3.8061452849146587e-22,0.451015274734155
151.0,0.43361009188290767,0.43499462264031513,0.0034495370755816546,0.32850035213708273,0.041165909382986234,0.06187882404466452,1.5471773158814186e-21,0.4315450855647335
151.5,0.4143584683165572,0.41574299907396467,0.0021657779320919945,0.30375936251560676,0.050945982570015216,0.058871876056250695,6.095327883954526e-21,0.4135772211418727
152.0,0.3960552462380269,0.39743977699543437,0.00048270595238736336,0.27964543561385724,0.06131051190565421,0.05600112352353555,2.3285453691056988e-20,0.396957071043047
152.5,0.37918083404858993,0.3805653648059974,-0.0008189711391972665,0.25633614317354037,0.07178691856259035,0.05326127420906396,8.630324997299246e-20,0.38138433594519466
153.0,0.3638824424281444,0.36526697318555185,-0.001180015982146454,0.23397800263183852,0.08182182013254241,0.05064716640331741,3.104877286405561e-19,0.3664469891676983
153.5,0.3485422935903659,0.3499268243477734,-0.0017443977394016597,0.2126872885425577,0.09083016093082733,0.04815377261379004,1.0848071811005144e-18,0.35167122208717505
154.0,0.33275269150049486,0.3341372222579023,-0.002443835904858749,0.19255147551325658,0.09825338023692878,0.045776202412575726,3.6826758698545936e-18,0.33658105816276107
154.5,0.31653653326785847,0.31792106402526593,-0.002838133308369184,0.17363118303978495,0.10361830977805737,0.04350970451579281,1.215305333784218e-17,0.3207591973336351
155.0,0.29949662531278887,0.30088115607019633,-0.003018947985713838,0.1559624949888347,0.1065879409028642,0.041349668164211185,3.900520837192861e-17,0.30390010405591017
155.5,0.28176446602254396,0.2831489967799514,-0.0026985529107725337,0.13955953334865023,0.1069963924715652,0.03929162387050839,1.2180796730799214e-16,0.28584754969072396
156.0,0.26323145640513634,0.2646159871625438,-0.0019955239751494602,0.12441717618697264,0.10486309135601318,0.03733124359470709,3.702897100143514e-16,0.26661151113769327
156.5,0.24394594956211327,0.24533048031952076,-0.0010324279936602676,0.11051382249554319,0.10038474541208985,0.03546434040554691,1.0962606713915959e-15,0.24636290831318103
157.0,0.22478098824595305,0.22616551900336054,0.0007571732346881577,0.0978141208061742,0.09390735728065236,0.033686867681842675,3.1621477529300364e-15,0.22540834576867239
