wavelength,absorbance,absorbance_bk,residual_3gauss
117.0,0.29073440100283404,0.29033141658959566,-0.007869277634743987
117.5,0.29048570938144613,0.29008272496820775,-0.005121699994491746
118.0,0.28877602992825263,0.28837304551501425,-0.003483240942289245
118.5,0.28541686308866454,0.28501387867542616,-0.003165074177520766
119.0,0.28493026802221727,0.2845272836089789,0.0003317237801723216
119.5,0.28163111746163794,0.28122813304839955,0.0012985467201379053
120.0,0.2782106879656759,0.2778077035524375,0.0024029372736938392
120.5,0.27609282202382607,0.2756898376105877,0.005044800071255906
121.0,0.2706037866637523,0.2702008022505139,0.004526265858323109
121.5,0.26668564135476,0.2662826569415216,0.005765010150352412
122.0,0.25996785648193366,0.2595648720686953,0.00436575800325828
122.5,0.25488993015938205,0.25448694574614367,0.004742713184831299
123.0,0.24805495674988093,0.24765197233664252,0.003472856869883828
123.5,0.24134999963402265,0.24094701522078424,0.002415962752116335
124.0,0.234406605000832,0.23400362058759358,0.0011746639396993663
124.5,0.22788215671077777,0.22747917229753936,0.0003752763795679126
125.0,0.22110223663661785,0.22069925222337944,-0.0006904440876052131
125.5,0.21457073232301976,0.21416774790978135,-0.001555846761857771
126.0,0.20840761676427008,0.20800463235103167,-0.0021422749125950546
126.5,0.2025096229487177,0.20210663853547928,-0.0025990305988323747
127.0,0.1967986492924956,0.1963956648792572,-0.0030555229408057716
127.5,0.19134610940685068,0.19094312499361227,-0.0034973203435310074
128.0,0.18734607985576548,0.18694309544252707,-0.0027931803287461476
128.5,0.18290268529415088,0.18249970088091247,-0.0029075426702313834
129.0,0.1800041572693736,0.1796011728561352,-0.0019259780687117811
129.5,0.17725109927716848,0.17684811486393007,-0.0013259983327583713
130.0,0.17514398854324864,0.17474100413001023,-0.0006881532557602432
130.5,0.1738689115391706,0.1734659271259322,9.160314900119593e-05
131.0,0.17358408422882388,0.17318109981558547,0.00109081833407082
131.5,0.17320755058113835,0.17280456616789994,0.001151068148896428
132.0,0.17417563520962767,0.17377265079638926,0.0016395999746204593
132.5,0.17597437757928688,0.17557139316604847,0.0019842024707668326
133.0,0.1783229742585107,0.1779199898452723,0.0018601788572432665
133.5,0.18177620140082093,0.18137321698758252,0.0017962205087011796
134.0,0.18595430340588223,0.18555131899264382,0.0014074749907944661
134.5,0.19098973486932933,0.19058675045609091,0.0008449990498362592
135.0,0.19705051829003004,0.19664753387679162,0.0003211706438946693
135.5,0.20414461174238907,0.20374162732915066,-8.471259400541498e-05
136.0,0.21150309612015908,0.21110011170692067,-0.0010429715063479117
136.5,0.22011722607576692,0.2197142416625285,-0.0014372637572383495
137.0,0.22966701554716729,0.22926403113392888,-0.0014378462269635517
137.5,0.24024973041239597,0.23984674599915756,-0.0007759861771002297
138.0,0.250908151243633,0.25050516683039464,-0.00021957740403344417
138.2,0.25477304098382136,0.254370056570583,-0.00040118605831229726
138.4,0.2592318517909414,0.258828867377703,2.7830466790834674e-05
138.6,0.2633736572539881,0.2629706728407497,0.00017006959076276695
138.8,0.2676387467370136,0.2672357623237752,0.0004794257226021781
139.0,0.27184076411513886,0.2714377797019005,0.000783167705254495
139.2,0.2760719305745435,0.2756689461613051,0.0011870997277391715
139.4,0.2799181014822405,0.2795151170690021,0.0012905561287246403
139.6,0.2836888276664747,0.2832858432532363,0.0014164008495770597
139.8,0.2875738404548851,0.2871708560416467,0.0017674512961611266
140.0,0.2906511897563568,0.2902482053431184,0.0014345562980944138
140.2,0.2941015666246938,0.2936985822114554,0.001610859992596081
140.4,0.29653137932711565,0.29612839491387727,0.0009148210269771528
140.6,0.2990753648204834,0.29867238040724503,0.0004927693314833448
140.8,0.3018759683008602,0.30147298388762184,0.0004982334505782005
141.0,0.30366704304369097,0.3032640586304526,-0.00032440905780184437
141.2,0.3060227022608202,0.3056197178475818,-0.00039112617060876875
141.4,0.3074905230609615,0.3070875386477231,-0.0011450705883160883
141.6,0.30936594806816586,0.3089629636549275,-0.0012822178292418163
141.8,0.3110456485752796,0.3106426641620412,-0.0013980392159204102
142.0,0.3120136741545444,0.311610689741306,-0.002001384740336898
142.2,0.3137941522991925,0.3133911678859541,-0.0015618121903069881
142.4,0.3145681135061675,0.3141651290929291,-0.0018927871309163402
142.6,0.3156244275356105,0.3152214431223721,-0.001700768057104285
142.8,0.3163609540720436,0.31595796965880524,-0.0015840735904588676
143.0,0.31673539865028494,0.31633241423704656,-0.0015820409986999073
143.2,0.31725881889220486,0.3168558344789665,-0.0011815311724402422
143.4,0.31763574872552136,0.317232764312283,-0.000676812601838328
143.6,0.3171272145943212,0.3167242301810828,-0.0008065505824167984
143.8,0.31686676767891114,0.31646378326567276,-0.0004377778865656823
144.0,0.3165329556690801,0.3161299712558417,0.0001065763860751412
144.2,0.31520617125824546,0.3148031868450071,-9.546329959259081e-05
144.4,0.3140436027149704,0.313640618301732,0.00011003485655236567
144.6,0.3125383126363983,0.3121353282231599,0.00021199356813161874
144.8,0.310910880255231,0.3105078958419926,0.0004259751061692074
145.0,0.3087691237196242,0.3083661393063858,0.0003539113952528705
145.2,0.30668442429897447,0.3062814398857361,0.0005604375812691686
145.4,0.30421985533161494,0.30381687091837656,0.0006010320688633608
145.6,0.3016458902454215,0.3012429058321831,0.0007377376717593864
145.8,0.29903165658602576,0.2986286721727874,0.0010304312631453927
146.0,0.2959310033934093,0.2955280189801709,0.0010229098650695323
146.2,0.29252993140236344,0.29212694698912506,0.0008903433951611972
146.4,0.2890518796060362,0.2886488951927978,0.0008445884887973709
146.6,0.2854985916830627,0.2850956072698243,0.0008750878950853358
146.8,0.28176421006579744,0.28136122565255905,0.0008630043147890842
147.0,0.2777403185632727,0.2773373341500343,0.0006863107411586578
147.2,0.273800939044306,0.27339795463106764,0.0007048439679194773
147.4,0.269438491178337,0.26903550676509863,0.00039633137803624097
147.6,0.2648738641414146,0.26447087972817623,-3.345906778429164e-05
147.8,0.26053769081463174,0.26013470640139336,-0.0001693542760579092
148.0,0.2556792304564261,0.2552762460431877,-0.0007777903209858494
148.2,0.2511451530812684,0.25074216866803,-0.0010279120854071455
148.4,0.24646073807702823,0.24605775366378982,-0.0014102458097770554
148.6,0.2428114149461877,0.24240843053294928,-0.0007550172073569617
148.8,0.23866835435819153,0.23826536994495312,-0.0006064079958609525
149.0,0.234826604148108,0.23442361973486958,-0.00018425777817743239
149.2,0.23074420787782204,0.23034122346458363,-4.477577181380421e-05
149.4,0.2266810513106902,0.22627806689745178,5.848030306415675e-05
149.6,0.22313547512966228,0.22273249071642387,0.0006113933281469419
149.8,0.21949217150279224,0.21908918708955383,0.0009873578427262997
150.0,0.21528851535272184,0.21488553093948343,0.0007137798724863587
150.5,0.20738663649683217,0.20698365208359376,0.0021952720410607363
151.0,0.19827195583787033,0.19786897142463192,0.0017724086907366376
151.5,0.18989250136844968,0.18948951695521127,0.0013807052646657991
152.0,0.18199859708321897,0.18159561266998056,0.0008339739200171059
152.5,0.17442233136644703,0.17401934695320861,9.809350573203313e-05
153.0,0.16767015607488772,0.1672671716616493,-0.00013104823529250242
153.5,0.16051407298691167,0.16011108857367326,-0.000858742828091813
154.0,0.15350478947451596,0.15310180506127755,-0.0013056854945203422
154.5,0.14649577179152967,0.14609278737829126,-0.001412543259059429
155.0,0.13900817085841852,0.1386051864451801,-0.0015007568654818448
155.5,0.13084466155742475,0.13044167714418634,-0.0016778156936225752
156.0,0.12291961906221788,0.12251663464897947,-0.001016981140570014
156.5,0.11389998521959913,0.11349700080636071,-0.0009160802718763406
157.0,0.10540459994504223,0.10500161553180382,0.00011174019233574362
157.5,0.09680814838862321,0.0964051639753848,0.0012593288924219181
158.0,0.0883759718662133,0.08797298745297488,0.002582086218752791
158.5,0.07892123877689845,0.07851825436366004,0.0026778630546824556
159.0,0.06951934779237069,0.06911636337913228,0.002421975496615131
159.5,0.060717305366994594,0.06031432095375619,0.0021927477034231688
160.0,0.052025514033441765,0.05162252962020336,0.0013737129441045368
160.5,0.04426721691794953,0.04386423250471112,0.0007074601405362355
161.0,0.03704187713600051,0.036638892722762106,-0.00024197077882956441
161.5,0.03053479374108981,0.0301318093278514,-0.0012846193427944255
162.0,0.02489596166872841,0.024492977255490003,-0.002233552157630242
162.5,0.020127584186610377,0.01972459977337197,-0.0030263307726435124
163.0,0.016090464674487184,0.015687480261248776,-0.0037275114048827274
163.5,0.012424374572306983,0.012021390159068576,-0.004616164745597827
164.0,0.010156260719206577,0.00975327630596817,-0.004584015334647385
164.5,0.008053033602628578,0.007650049189390171,-0.004787262426530584
165.0,0.006488255219219596,0.006085270805981188,-0.00478283015999636
165.5,0.005320764870560807,0.0049177804573224,-0.004651245904956692
166.0,0.00386405337309778,0.003461068959859373,-0.005027657155041619
166.5,0.0032793163546880983,0.002876331941449691,-0.0047083913615308575
167.0,0.00272654349815044,0.0023235590849120325,-0.004499004136470075
167.5,0.002593006696278112,0.0021900222830397048,-0.003984696995761374
168.0,0.0017125663128956248,0.0013095818996572174,-0.0043098635070058875
168.5,0.001175536481459921,0.0007725520682215138,-0.004367138929512441
169.0,0.0011403545736943898,0.0007373701604559826,-0.003984772887134387
169.5,0.0008375251870404046,0.0004345407738019974,-0.003921881161849548
170.0,0.0004786698690778764,7.568545583946912e-05,-0.003958746231192796
170.5,0.0005669037454455628,0.00016391933220715556,-0.0035859312035970226
171.0,0.0006914393442979531,0.0002884549310595458,-0.0032092855738730932
171.5,0.0004141911053606991,1.1206692122291866e-05,-0.003263046248421819
172.0,0.0005257857370431683,0.00012280132380476107,-0.0029536070060371556
172.5,0.00040298441323840725,0.0,-0.0029019316899826972
173.0,0.0005581651015926166,0.00015518068835420934,-0.0025939475831636112
173.5,0.0005717215111049926,0.00016873709786658535,-0.0024480505482638994
174.0,0.0006831875851874902,0.00028020317194908293,-0.0022239039648513778
174.5,0.0004381222950124053,3.513788177399803e-05,-0.0023754900196511666
175.0,0.0004900692970734869,8.708488383507964e-05,-0.0022490939374046055
175.5,0.0014269633010106887,0.0010239788877722815,-0.0012568458653950372
176.0,0.0010360619224599856,0.0006330775092215783,-0.0016117392678145388
176.5,0.001034707041783539,0.0006317226285451318,-0.0015968202659859712
177.0,0.0014070887928723404,0.0010041043796339333,-0.0012283739102573175
177.5,0.0015122132904481292,0.0011092288772097218,-0.0011479059185855
178.0,0.0018222309745463995,0.0014192465613079921,-0.0008837630947026547
178.5,0.002032763518982428,0.0016297791057440208,-0.000740754952435761
179.0,0.0023065300319096583,0.001903545618671251,-0.000556476614320337
179.5,0.0024749511318950847,0.0020719667186566773,-0.0004996554608935606
180.0,0.002739027451194985,0.0023360430379565774,-0.00036922623813601986
180.5,0.0032429890017268044,0.002840004588488397,-2.063957519496699e-05
181.0,0.0032369720472619694,0.002833987634023562,-0.00020314870788914726
181.5,0.00312469462538622,0.002721710212147813,-0.0005121046736741956
182.0,0.0037797033633472665,0.003376718950108859,-7.268863131698307e-05
182.5,0.003907160218749946,0.0035041758055115385,-0.00017811378086445917
183.0,0.004280017369378375,0.0038770329561399674,-5.344950369542273e-05
183.5,0.004021359703965065,0.0036183752907266572,-0.000573288792169808
184.0,0.004722477210392525,0.004319492797154117,-0.00014369682574211663
184.5,0.00520493832229746,0.004801953909059052,5.9830609476833885e-05
185.0,0.0052464399281052804,0.004843455514866873,-0.00018182479307009454
185.5,0.0053384950612132874,0.00493551064797488,-0.00037376721394679745
186.0,0.006007223499448548,0.005604239086210141,1.364512092508121e-05
186.5,0.00596892759179749,0.005565943178559083,-0.0002996890294990461
187.0,0.006312051710630948,0.005909067297392541,-0.00022172334844380512
187.5,0.006582854681274679,0.006179870268036272,-0.00020266238722815941
188.0,0.006610703915030941,0.006207719501792533,-0.0004097380791038196
188.5,0.007210145811865432,0.0068071613986270246,-2.520760021946719e-05
189.0,0.0076832704768501426,0.007280286063611735,0.0002559475437905138
189.5,0.007845434700954047,0.007442450287715639,0.0002516870554446337
190.0,0.008344375604191621,0.007941391190953214,0.000611976055257122
190.5,0.008467361409827494,0.008064376996589087,0.0006258957750571153
191.0,0.008216222978094446,0.007813238564856039,0.0002966453557080098
191.5,0.008297207786628518,0.007894223373390111,0.0003313770528659372
192.0,0.007878929203476236,0.007475944790237828,-0.00010086207165733996
192.5,0.008483645782022785,0.008080661368784377,0.0005221526114457045
193.0,0.008590095323582089,0.008187110910343682,0.0006786713778140444
193.5,0.008662299784345621,0.008259315371107214,0.0008317988077773449
194.0,0.00821996716685011,0.007816982753611703,0.0004999280808722934
194.5,0.008248267896480092,0.007845283483241684,0.0006665571100971717
195.0,0.007693105149416608,0.007290120736178201,0.0002756045321990752
195.5,0.007557997280848738,0.0071550128676103305,0.00032834216144727365
196.0,0.00695358512186141,0.0065506007086230025,-6.704489653934585e-05
196.5,0.006622147422577737,0.006219163009339329,-0.00017088873863240189
197.0,0.006198131496777973,0.0057951470835395655,-0.0003514541780819348
197.5,0.005975175528149929,0.005572191114911522,-0.00031786416457885505
198.0,0.005461246172928211,0.005058261759689804,-0.0005649126657283898
198.5,0.005045711480339023,0.004642727067100616,-0.0007059459965173967
199.0,0.0044085599100941245,0.004005575496855717,-0.0010636026272048153
199.5,0.004127745329744196,0.0037247609165057885,-0.0010624321908786639
200.0,0.004032093186283446,0.0036291087730450384,-0.0008759588957706248
200.5,0.0036729119155185946,0.0032699275022801872,-0.0009550454821210586
201.0,0.0033105989620026005,0.002907614548764193,-0.0010412683724595959
201.5,0.0032659484819062474,0.00286296406866784,-0.0008155968023194314
202.0,0.002995332293734479,0.0025923478804960715,-0.0008232040864187581
202.5,0.0033243219473144585,0.002921337534076051,-0.00023984275532869335
203.0,0.0031212989204780555,0.002718314507239648,-0.00019823606999306263
203.5,0.0029801645190337157,0.0025771801057953084,-0.00010537379224458045
204.0,0.002898617026339176,0.0024956326131007687,3.575591987221545e-05
204.5,0.0029708907174263773,0.00256790630418797,0.0003188937079272175
205.0,0.0027630644284314006,0.002360080015192993,0.0003098035879811438
205.5,0.002745839560881508,0.0023428551476431005,0.0004790353602706636
206.0,0.0024780962823372473,0.00207511186909884,0.00038546415647868707
206.5,0.0031771890799318302,0.002774204666693423,0.0012465687766497037
207.0,0.0026824025230701007,0.0022794181098316933,0.0009018701140069954
207.5,0.002728171293864504,0.0023251868806260967,0.0010861341098311519
208.0,0.002803260631117125,0.0024002762178787175,0.0012885357070958595
208.5,0.0027095644208945703,0.002306580007656163,0.001311441298083534
209.0,0.0028022373280685658,0.0023992529148301584,0.0015105262637122151
209.5,0.00277737307383542,0.0023743886605970127,0.00158243985755025
210.0,0.0031198836836671315,0.002716899270428724,0.0020126723561216357
210.5,0.002987027599213768,0.002584043185975361,0.00195907242075015
211.0,0.0031169765775535324,0.002713992164315125,0.002160404606525007
211.5,0.0027593059517123284,0.002356321538473921,0.001866831571042739
212.0,0.0029537336646690377,0.0025507492514306304,0.0021186463464770745
212.5,0.002789177903339718,0.0023861934901013107,0.0020053244312400664
213.0,0.002873044455781877,0.0024700600425434697,0.002134806738134125
213.5,0.0029802384888827247,0.0025772540756443174,0.0022825079987748194
214.0,0.0028277801607884344,0.002424795747550027,0.0021659299343249855
214.5,0.0027591063767529065,0.002356121963514499,0.002128961394084238
215.0,0.0030917913629692935,0.002688806949730886,0.002489598029651994
215.5,0.0029308567118862456,0.0025278722986478382,0.0023532520542235806
216.0,0.003262716614170629,0.0028597322009322216,0.0027066977031917545
216.5,0.0029003661150162983,0.002497381701777891,0.0023632601412477833
217.0,0.003167518544053761,0.0027645341308153537,0.0026469538802802515
217.5,0.003425679556339736,0.0030226951431013287,0.002919558068799635
218.0,0.0031614582980466,0.0027584738848081924,0.002667929098271908
218.5,0.003578867586763547,0.0031758831735251396,0.0030963023565711233
219.0,0.003466170993466969,0.0030631865802285617,0.002993140964230016
219.5,0.003531473150467814,0.0031284887372294064,0.003066727774351247
220.0,0.003832635420811328,0.0034296510075729207,0.0033750827356215656
