wavelength,absorbance,absorbance_bk,residual_3gauss,Gauss_1,Gauss_2,Gauss_3,Gauss_4,Gauss_fit
117.0,0.6584265756441301,0.6598111064015376,-0.013439693649983653,1.0950372212396005e-06,5.9923584794508845e-56,0.6732497050143,2.156932772035072e-111,0.6732508000515213
117.5,0.6572053465471228,0.6585898773045303,-0.00899264271355349,1.987224230054059e-06,4.291527376944526e-54,0.6675805327938538,5.225247554496349e-109,0.6675825200180838
118.0,0.6552298237817832,0.6566143545391907,-0.004473402591009923,3.5396802981105057e-06,2.754526134774133e-52,0.6610842174499025,1.1378197737261547e-106,0.6610877571302006
118.5,0.6491656664072677,0.6505501971646752,-0.0032643246759472833,6.1909511920058315e-06,1.5882053519168095e-50,0.6538083308894305,2.2317806626901807e-104,0.6538145218406225
119.0,0.6445018549195354,0.6458863856769429,7.40678993218502e-05,1.0636522963143801e-05,8.244634517296666e-49,0.6458016812546579,3.951255998719351e-102,0.645812317777621
119.5,0.63812297077998,0.6395075015373876,0.002375600691874813,1.795806837635684e-05,3.861877069480324e-47,0.6371139427771364,6.327006993757617e-100,0.6371319008455127
120.0,0.6318646442231329,0.6332491749805405,0.0054240637109694845,2.980587509374879e-05,1.6357717776182758e-45,0.6277953053944773,9.181106280609036e-98,0.627825111269571
120.5,0.6241501350399915,0.625534665797399,0.0075898695097830204,4.8650492702684793e-05,6.278521722400953e-44,0.6178961457949134,1.2096509059505695e-95,0.617944796287616
121.0,0.6134817238703464,0.6148662546277539,0.007321411583310566,7.812188709994319e-05,2.1882379264477628e-42,0.6074667211573433,1.4498045050172706e-93,0.6075448430444433
121.5,0.6036210307475781,0.6050055615049856,0.008325219179574628,0.00012345584283000508,6.939138316679223e-41,0.596556886482581,1.5835832752341255e-91,0.596680342325411
122.0,0.5916969899821821,0.5930815207395896,0.0076736172305977846,0.00019206744128954094,2.0060500196573033e-39,0.5852158360677023,1.5791898621417363e-89,0.5854079035089919
122.5,0.5799673205798985,0.581351851337306,0.007565712457051399,0.00029426951878270993,5.29706115653827e-38,0.5734918693614719,1.4402978800597883e-87,0.5737861388802546
123.0,0.5665002258662856,0.5678847566236931,0.006008426065212125,0.00044414940276170904,1.279964749177502e-36,0.5614321811557192,1.2034844262267692e-85,0.561876330558481
123.5,0.5514734851548141,0.5528580159122216,0.0031147307701613336,0.0006606093263125639,2.835470071846702e-35,0.5490826758157478,9.22843330526406e-84,0.5497432851420603
124.0,0.5374978588938949,0.5388823896513024,0.001426020333976985,0.0009685642851671385,5.768891288295135e-34,0.5364878050321583,6.504710132980795e-82,0.5374563693173254
124.5,0.5228348231418422,0.5242193538992497,-0.000871350056577902,0.001400275569692804,1.0798376832076964e-32,0.5236904283861348,4.221218723870017e-80,0.5250907039558276
125.0,0.5092115464598087,0.5105960772172162,-0.0021323976663614186,0.001996779024117127,1.862794372277933e-31,0.5107316958594605,2.52603825036993e-78,0.5127284748835776
125.5,0.4947387162251171,0.4961232469825246,-0.004337049316654296,0.0028093450115112516,2.9664460656599906e-30,0.4976509512876677,1.3960517088907068e-76,0.5004602962991789
126.0,0.48181314630262817,0.48319767706003564,-0.00518886200709423,0.0039008834187487748,4.3679898603269723e-29,0.4844856556483811,7.136338922731311e-75,0.48838653906712987
126.5,0.46919299270621734,0.4705775234636248,-0.006040989244493644,0.005347183712906784,5.956526639203803e-28,0.4712713289952117,3.3790961496391975e-73,0.47661851270811845
127.0,0.4573657590970508,0.45875028985445826,-0.006529079379973157,0.007237859445918297,7.534389866265582e-27,0.4580415097885131,1.484231734620752e-71,0.4652793692344314
127.5,0.44715940555270006,0.4485439363101075,-0.005960645446277002,0.009676851420345127,8.853373813906018e-26,0.4448277303360394,6.056064457925576e-70,0.45450458175638453
128.0,0.43743878049359336,0.4388233112510008,-0.005618532581847413,0.012782336796020494,9.67882710507263e-25,0.43165950703682776,2.2986100871395746e-68,0.44444184383284824
128.5,0.4299413004589956,0.43132583121640306,-0.003924408251656908,0.016685895349440625,9.85877786965497e-24,0.4185643441186193,8.12665505786916e-67,0.43525023946805996
129.0,0.42341696640566606,0.4248014971630735,-0.002297053372298574,0.02153080096479636,9.36977380765652e-23,0.40556774957057573,2.679805269147761e-65,0.4270985505353721
129.5,0.4181297181250423,0.41951424888244976,-0.0006483505401801426,0.027469337425370256,8.320443354377965e-22,0.3926932619972596,8.252785888343705e-64,0.4201625994226299
130.0,0.4142109941442216,0.41559552490162904,0.0009739550436883015,0.034659082703212794,6.913016099530107e-21,0.37996248715472797,2.3765832331290138e-62,0.41462156985794074
130.5,0.41146012808460786,0.4128446588420153,0.0021913520084358984,0.04325816386007036,5.3811101374927594e-20,0.36739514297350906,6.407641403155791e-61,0.4106533068335794
131.0,0.41068660122976336,0.4120711319871708,0.0036424674816611935,0.053419552580991736,3.9294002813989036e-19,0.3550091119245179,1.619430849306089e-59,0.40842866450550963
131.5,0.4108830561663956,0.41226758692380305,0.004162542164676042,0.06528454511809847,2.695164693429644e-18,0.34282049964102856,3.841147284928583e-58,0.408105044759127
132.0,0.41321710049733046,0.4146016312547379,0.0047822877090817895,0.0789756447742954,1.7385675286739217e-17,0.3308436987713607,8.560485731557814e-57,0.40981934354565613
132.5,0.41710729509401534,0.4184918258514228,0.00481123470401662,0.09458913404583108,1.0560291554152865e-16,0.319091457101575,1.7946047434866064e-55,0.4136805911474062
133.0,0.4228280092581791,0.42421254001558656,0.004449909946811992,0.11218768101462132,6.047248251331197e-16,0.3075749490541526,3.5428763037108084e-54,0.41976263006877457
133.5,0.43064566580758934,0.4320301965649968,0.003932982061036039,0.13179336476764422,3.268477865270268e-15,0.29630384973631324,6.5937695394689555e-53,0.42809721450396077
134.0,0.44009357401891536,0.4414781047763228,0.0028101712740164486,0.15338152272289468,1.6693085188129243e-14,0.285286410779395,1.1581536922746004e-51,0.4386679335023064
134.5,0.4512579778950431,0.4526425086524506,0.0012371559206996174,0.17687581545380038,8.065249861150651e-14,0.27452953727786994,1.9217983636384241e-50,0.451405352731751
135.0,0.4645319859893745,0.465916516746782,-0.00026721897174880604,0.2021448705158007,3.690334157692183e-13,0.26403886520236103,3.0158092099473016e-49,0.4661837357185308
135.5,0.47958186696575994,0.4809663977231674,-0.0018532476070869386,0.22900080660363722,1.6008351208485016e-12,0.2538188387250163,4.480128521609976e-48,0.48281964533025434
136.0,0.4964379891135682,0.49782251987097564,-0.003250123067106203,0.2571998559742673,6.590480713153116e-12,0.24387278695722406,6.306594700389469e-47,0.5010726429380818
136.5,0.5149892085002729,0.5163737392576804,-0.004274461728511536,0.2864452013017905,2.5776507477000993e-11,0.2342029996586249,8.420460023696463e-46,0.5206482009861919
137.0,0.5354222824067043,0.5368068131641118,-0.00439601789964994,0.3163920294354756,9.587493007215463e-11,0.22481080153241126,1.0673904428147734e-44,0.5412028310637618
137.5,0.5579674342147405,0.559351964972148,-0.002999346578197115,0.34665468643614544,3.3945983721725404e-10,0.21569662477473986,1.285758122653004e-43,0.5623513115503451
138.0,0.5811008058115329,0.5824853365689404,-0.0011904479186567452,0.37681570374671236,1.1452320099275144e-09,0.20686007959565278,1.473117959492549e-42,0.5836757844875972
138.2,0.5894950674845771,0.5908795982419847,-0.0012772001955471124,0.3887538305755992,1.83803539970334e-09,0.2034029660238972,3.853571028726536e-42,0.5921567984375318
138.4,0.5988976781116253,0.6002822088690328,-0.00028472490579456444,0.4005769374715171,2.9278541464736683e-09,0.1999899933754562,1.0002168380253512e-41,0.6005669337748274
138.6,0.6076542365833468,0.6090387673407544,0.00016149057438730186,0.4122562323002602,4.6291990796600235e-09,0.1966210398369077,2.576048640325515e-41,0.608877276766367
138.8,0.6164723517384189,0.6178568824958264,0.000797979059302345,0.4237629288783012,7.265217097998944e-09,0.19329596729300572,6.583654370386641e-41,0.617058903436524
139.0,0.6252314612458529,0.6266159920032605,0.0015329833000113924,0.43506837542436505,1.1318865662833326e-08,0.1900146219600183,1.669770652750253e-40,0.6250830087032491
139.2,0.6337080276516377,0.6350925584090452,0.0021715227911156543,0.44614418310389214,1.75062782899912e-08,0.18677683500775916,4.202880489356174e-40,0.6329210356179296
139.4,0.642025995481058,0.6434105262384655,0.0028657223820972577,0.45696235380513256,2.688104806336883e-08,0.1835824231701876,1.0499317423115516e-39,0.6405448038563683
139.6,0.6496388132950616,0.6510233440524691,0.003096707432345802,0.46749540629448244,4.098119715902521e-08,0.18043118934444366,2.6032873238514746e-39,0.6479266366201233
139.8,0.6573420267330853,0.6587265574904928,0.0036870723627526747,0.47771649991499193,6.203454220191385e-08,0.17732292317820594,6.406977138682164e-39,0.6550394851277401
140.0,0.6635685267318545,0.664953057489262,0.0030960075852318747,0.4875995550155098,9.324321492686053e-08,0.17425740164530543,1.5652262207050761e-38,0.6618570499040302
140.2,0.6700965273004842,0.6714810580578917,0.003127159945249036,0.49711936932864925,1.3917448818238157e-07,0.1712343896095052,3.795915880080608e-38,0.6683538981126427
140.4,0.6757951437293984,0.6771796744868059,0.00267409826459164,0.5062517295527617,2.0629304350033728e-07,0.16825364037640916,9.138902514518089e-38,0.6745055762222143
140.6,0.68053093731304,0.6819154680704476,0.0016267507209507537,0.514973517436369,3.036796662507838e-07,0.16531489623346152,2.1843981842118217e-37,0.6802887173494968
140.8,0.6857035985042741,0.6870881292616816,0.0014069865780682589,0.52326280971227,4.439933360705071e-07,0.1624178889780072,5.1838447505248986e-37,0.6856811426836134
141.0,0.6894159708974772,0.6908005016548847,0.0001385451912642166,0.5310989712821526,6.447480436116897e-07,0.15956234043342435,1.221452348813167e-36,0.6906619564636205
141.2,0.6932080500829619,0.6945925808403695,-0.0006190532162697604,0.5384627411107045,9.299926158293814e-07,0.15674796295331897,2.8577695618332427e-36,0.6952116340566392
141.4,0.6962935996116713,0.6976781303690788,-0.0016339723960704378,0.5453363103498279,1.3325015010019037e-06,0.15397445991382036,6.639350837821236e-36,0.6993121027651492
141.6,0.6990515666096684,0.7004360973670759,-0.0025107177121838076,0.5517033922783938,1.8966068654505286e-06,0.1512415261940004,1.5317687142248228e-35,0.7029468150792597
141.8,0.701773112441979,0.7031576431993866,-0.00294317098239516,0.5575492837099794,2.6818273374282593e-06,0.148548848644465,3.509548085478457e-35,0.7061008141817817
142.0,0.7038656367977806,0.7052501675551881,-0.0035106240546287637,0.5628609175897035,3.767475934571095e-06,0.1458961065441789,7.985842097306989e-35,0.7087607916098169
142.2,0.70636951524305,0.7077540460004575,-0.003161091074510014,0.567626906570891,5.258458490638222e-06,0.1432829720455859,1.8047734253651196e-34,0.7109151370749676
142.4,0.7079280264857961,0.7093125572432036,-0.0032414233002887594,0.5718375774320998,7.2925032835562756e-06,0.14070911060810903,4.05114574167388e-34,0.7125539805434924
142.6,0.7089289460348385,0.710313476792246,-0.003355749983529277,0.5754849962644618,1.004909120028493e-05,0.1381741814201132,9.032476895105287e-34,0.7136692267757753
142.8,0.7098905168399089,0.7112750475973164,-0.0029795350215767735,0.5785629844276095,1.3760381859001342e-05,0.13567783780942477,2.000461064576093e-33,0.7142545826188932
143.0,0.7102567168805752,0.7116412476379828,-0.002664329796002729,0.5810671253390836,1.8724452380796088e-05,0.1332197276425211,4.401167308023353e-33,0.7143055774339855
143.2,0.7103478526317438,0.7117323833891513,-0.0020871937290820597,0.582994762226528,2.5321179216821203e-05,0.13079949371248853,9.619229949142782e-33,0.7138195771182334
143.4,0.7100759996693956,0.7114605304268031,-0.0013352618190112242,0.5843449870335445,3.403109638685471e-05,0.12841677411588295,2.0886580906585356e-32,0.7127957922458144
143.6,0.7087084766738676,0.7100930074312751,-0.0011422734678278035,0.5851186207284325,4.545755206213202e-05,0.1260712026186084,4.505767984718873e-32,0.7112352808991029
143.8,0.7069528357169016,0.7083373664743091,-0.0008035803120036711,0.5853181853196497,6.03524557180172e-05,0.12376240901094501,9.657492467818278e-32,0.7091409467863128
144.0,0.7049851822505268,0.7063697130079343,-0.00014782023235326847,0.5849478679323801,7.964585603218086e-05,0.12149001945187526,2.0567121523247425e-31,0.7065175332402875
144.2,0.701914111682488,0.7032986424398955,-7.29712209968092e-05,0.5840134773467412,0.00010447951131471614,0.11925365680283632,4.352267531771589e-31,0.7033716136608923
144.4,0.698643261206735,0.7000277919641426,0.00031621306758078394,0.5825223934396466,0.0001362445058561978,0.11705294095105902,9.151868810941064e-31,0.6997115788965618
144.6,0.6947117423795712,0.6960962731369787,0.0005486511812665684,0.5804835100089365,0.00017662282413833462,0.1148874891226374,1.912384317181552e-30,0.6955476219557122
144.8,0.6900880586882926,0.6914725894457001,0.0005808691519022524,0.5779071714899743,0.00022763261833770614,0.11275691618548585,3.971281292103378e-30,0.6908917202937979
145.0,0.6851638619401996,0.6865483926976071,0.0007907769615574933,0.5748051041013796,0.000291676692318823,0.11066083494235128,8.195868336389069e-30,0.6857576157360497
145.2,0.6797670529113946,0.6811515836688021,0.0009907917984296466,0.5711903419778549,0.0003715934784888435,0.10859885641402872,1.6810737077958526e-29,0.6801607918703725
145.4,0.6738948932978596,0.6752794240552671,0.0011609755723069881,0.5670771488642491,0.0004707095057514203,0.10657059011295955,3.4270817769021245e-29,0.6741184484829601
145.6,0.6679421093486784,0.6693266401060859,0.001677167789522982,0.5624809359560804,0.0005928920531086898,0.10457564430737387,6.944267401140278e-29,0.6676494723165629
145.8,0.6610344639549728,0.6624189947123803,0.0016445915956998514,0.5574181764778455,0.0007426003626895094,0.10261362627614544,1.3986557853927501e-28,0.6607744031166805
146.0,0.6539200433175575,0.655304574074965,0.001789180469205176,0.5519063175917832,0.0009249334594389002,0.10068414255453767,2.800243158824766e-28,0.6535153936057598
146.2,0.6463958420628516,0.6477803728202591,0.001884211116324086,0.5459636902264159,0.0011456723065100339,0.09878679917100912,5.573128283263714e-28,0.645896161703935
146.4,0.6380111456157321,0.6393956763731397,0.0014537433591162996,0.5396094174065024,0.0014113137322700109,0.09692120187525098,1.102652080428847e-27,0.6379419330140234
146.6,0.6300286922249617,0.6314132229823692,0.0017338516548164318,0.5328633216542533,0.0017290933156547885,0.09508695635764473,2.1688612183200028e-27,0.6296793713275528
146.8,0.6212774772304356,0.6226620079878431,0.0015255132798115412,0.5257458320159057,0.0021069942318291445,0.09328366846029668,4.241273947670647e-27,0.6211364947080316
147.0,0.6117557481047282,0.6131402788621357,0.0007977042727684847,0.5182778912486878,0.0025537389608319165,0.0915109443798475,8.24611812341697e-27,0.6123425745893673
147.2,0.6025024560874208,0.6038869868448283,0.0005589715330239775,0.5104808636806945,0.0030787607688936972,0.08976839086221619,1.5940747271363954e-26,0.6033280153118044
147.4,0.592444318570167,0.5938288493275745,-0.0002953622975048198,0.5023764442310523,0.003692152004559595,0.08805561538946742,3.0640143889156466e-26,0.5941242116250793
147.6,0.5823471160289282,0.5837316467863357,-0.0010317351485061854,0.4939865690499523,0.004404586525914039,0.0863722263589756,5.85615947332247e-26,0.5847633819348419
147.8,0.5726095167748377,0.5739940475322453,-0.0012843279340817304,0.4853333282082192,0.005227214003050659,0.08471783325505719,1.1129913813835309e-25,0.575278375466327
148.0,0.5623223437894835,0.5637068745468911,-0.0019955775286312205,0.47643888083448077,0.006171524427783925,0.08309204681325763,2.1035083187112482e-25,0.5657024520755223
148.2,0.55224995150579,0.5536344822631976,-0.002434551888987335,0.4673253730647646,0.0072491819099637965,0.08149447917745649,3.9535458457602864e-25,0.5560690341521849
148.4,0.5426018869191782,0.5439864176765857,-0.0024250132468786045,0.45801485913526324,0.008471827738225886,0.07992474404997521,7.389854689139107e-25,0.5464114309234643
148.6,0.5339389281412473,0.5353234588986548,-0.0014390775658968957,0.44852922591396793,0.009850853715728107,0.07838245683485573,1.3737507053728855e-24,0.5367625364645517
148.8,0.5249345811414848,0.5263191118988924,-0.0008353919297603429,0.4388901211315073,0.01139714792266724,0.07686723477447814,2.5399144048872312e-24,0.5271545038286527
149.0,0.5161449857589857,0.5175295165163932,-8.888237224558004e-05,0.42911888553612565,0.013120816272814481,0.07537869707969867,4.670737357465693e-24,0.5176183988886388
149.2,0.5075735948919433,0.5089581256493508,0.0007742869545854791,0.4192364891623096,0.015030884478790895,0.07391646505366485,8.543247622869623e-24,0.5081838386947654
149.4,0.49904945287618974,0.5004339836335973,0.0015553632848661625,0.4092634718678681,0.017134986271378813,0.07248016220948418,1.5543455409077672e-23,0.4988786203487311
149.6,0.4906877433988339,0.4920722741562414,0.0023439266361234834,0.3992198882600857,0.01943904487812298,0.07106941438190924,2.8130335201161204e-23,0.4897283475201179
149.8,0.48262998692865133,0.4840145176860588,0.0032584549551218367,0.38912525709841256,0.021946955799324812,0.06968384983319957,5.0643138408885384e-23,0.48075606273093696
150.0,0.47348734157037303,0.4748718723277805,0.002889977976514857,0.3789985152292141,0.02466027976872329,0.06832309935332824,9.069851518381425e-23,0.47198189435126564
150.5,0.4536092372667689,0.45499376802417635,0.003978493255902327,0.3536597248409025,0.032328164259363225,0.06502738566800825,3.8061452723513475e-22,0.451015274768274
151.0,0.43361009188290767,0.43499462264031513,0.003449537031788852,0.3285003519709271,0.04116590957199261,0.06187882406560658,1.547177310906652e-21,0.4315450856085263
151.5,0.4143584683165572,0.41574299907396467,0.002165777883268938,0.30375936234625783,0.05094598276799334,0.05887187607644456,6.095327864866211e-21,0.41357722119069573
152.0,0.3960552462380269,0.39743977699543437,0.0004827059040877768,0.2796454354428596,0.06131051210548767,0.056001123542999354,2.3285453620047858e-20,0.3969570710913466
152.5,0.37918083404858993,0.3805653648059974,-0.0008189711813323397,0.25633614300239405,0.07178691875711958,0.053261274227816124,8.630324971675858e-20,0.38138433598732974
153.0,0.3638824424281444,0.36526697318555185,-0.00118001601328116,0.23397800246196762,0.08182182031548887,0.0506471664213765,3.1048772774323005e-19,0.366446989198833
153.5,0.3485422935903659,0.3499268243477734,-0.0017443977562959234,0.212687288375283,0.09083016109761156,0.048153772631174784,1.0848071780493122e-18,0.3516712221040693
154.0,0.33275269150049486,0.3341372222579023,-0.0024438359064030135,0.19255147534977535,0.09825338038522512,0.045776202429304864,3.6826758597757816e-18,0.33658105816430534
154.5,0.31653653326785847,0.31792106402526593,-0.002838133295752554,0.17363118288115514,0.1036183099079782,0.04350970453188515,1.2153053305484999e-17,0.3207591973210185
155.0,0.29949662531278887,0.30088115607019633,-0.0030189479621982596,0.15596249483596564,0.10658794101674343,0.041349668179685425,3.900520827092099e-17,0.3039001040323946
155.5,0.28176446602254396,0.2831489967799514,-0.002698552881121974,0.13955953320229764,0.10699639257339252,0.03929162388538315,1.2180796700125733e-16,0.2858475496610734
156.0,0.26323145640513634,0.2646159871625438,-0.0019955239448359308,0.12441717604773872,0.10486309145063975,0.03733124360900088,3.702897091078086e-16,0.26661151110737974
156.5,0.24394594956211327,0.24533048031952076,-0.0010324279680026527,0.11051382236388071,0.10038474550436365,0.03546434041927799,1.0962606687829076e-15,0.2463629082875234
157.0,0.22478098824595305,0.22616551900336054,0.0007571732512915708,0.09781412068239355,0.09390735737464315,0.033686867695029106,3.1621477456177526e-15,0.22540834575206897
