wavelength,absorbance,absorbance_bk,residual_3gauss
117.0,0.6584265756441301,0.6598111064015376,-0.013439693596051128
117.5,0.6572053465471228,0.6585898773045303,-0.008992642664170214
118.0,0.6552298237817832,0.6566143545391907,-0.004473402546128269
118.5,0.6491656664072677,0.6505501971646752,-0.0032643246355031907
119.0,0.6445018549195354,0.6458863856769429,7.406793540787326e-05
119.5,0.63812297077998,0.6395075015373876,0.002375600723695692
120.0,0.6318646442231329,0.6332491749805405,0.00542406373863058
120.5,0.6241501350399915,0.625534665797399,0.007589869533400795
121.0,0.6134817238703464,0.6148662546277539,0.007321411603011474
121.5,0.6036210307475781,0.6050055615049856,0.008325219195492894
122.0,0.5916969899821821,0.5930815207395896,0.007673617242874964
122.5,0.5799673205798985,0.581351851337306,0.0075657124658351504
123.0,0.5665002258662856,0.5678847566236931,0.006008426070654771
123.5,0.5514734851548141,0.5528580159122216,0.003114730772419083
124.0,0.5374978588938949,0.5388823896513024,0.001426020333210376
124.5,0.5228348231418422,0.5242193538992497,-0.0008713500602056667
125.0,0.5092115464598087,0.5105960772172162,-0.0021323976726834726
125.5,0.4947387162251171,0.4961232469825246,-0.004337049325500331
126.0,0.48181314630262817,0.48319767706003564,-0.005188862018288887
126.5,0.46919299270621734,0.4705775234636248,-0.006040989257855678
127.0,0.4573657590970508,0.45875028985445826,-0.0065290793953139414
127.5,0.44715940555270006,0.4485439363101075,-0.005960645463398084
128.0,0.43743878049359336,0.4388233112510008,-0.005618532600538462
128.5,0.4299413004589956,0.43132583121640306,-0.003924408271693769
129.0,0.42341696640566606,0.4248014971630735,-0.0022970533934409954
129.5,0.4181297181250423,0.41951424888244976,-0.000648350562170108
130.0,0.4142109941442216,0.41559552490162904,0.0009739550211272374
130.5,0.41146012808460786,0.4128446588420153,0.002191351985599388
131.0,0.41068660122976336,0.4120711319871708,0.003642467458861931
131.5,0.4108830561663956,0.41226758692380305,0.004162542142241765
132.0,0.41321710049733046,0.4146016312547379,0.004782287687351339
132.5,0.41710729509401534,0.4184918258514228,0.004811234683333276
133.0,0.4228280092581791,0.42421254001558656,0.004449909927516649
133.5,0.43064566580758934,0.4320301965649968,0.003932982043458044
134.0,0.44009357401891536,0.4414781047763228,0.0028101712584635563
134.5,0.4512579778950431,0.4526425086524506,0.0012371559074466632
135.0,0.4645319859893745,0.465916516746782,-0.0002672189824707294
135.5,0.47958186696575994,0.4809663977231674,-0.0018532476151017496
136.0,0.4964379891135682,0.49782251987097564,-0.003250123072302713
136.5,0.5149892085002729,0.5163737392576804,-0.004274461730852885
137.0,0.5354222824067043,0.5368068131641118,-0.004396017899178983
137.5,0.5579674342147405,0.559351964972148,-0.0029993465750419723
138.0,0.5811008058115329,0.5824853365689404,-0.001190447913030579
138.2,0.5894950674845771,0.5908795982419847,-0.0012772001890112294
138.4,0.5988976781116253,0.6002822088690328,-0.0002847248984015893
138.6,0.6076542365833468,0.6090387673407544,0.00016149058257974858
138.8,0.6164723517384189,0.6178568824958264,0.0007979790682317578
139.0,0.6252314612458529,0.6266159920032605,0.0015329833096108247
139.2,0.6337080276516377,0.6350925584090452,0.00217152280131383
139.4,0.642025995481058,0.6434105262384655,0.0028657223928190145
139.6,0.6496388132950616,0.6510233440524691,0.0030967074435122033
139.8,0.6573420267330853,0.6587265574904928,0.0036870723742815636
140.0,0.6635685267318545,0.664953057489262,0.0030960075970382084
140.2,0.6700965273004842,0.6714810580578917,0.003127159957245329
140.4,0.6757951437293984,0.6771796744868059,0.002674098276688186
140.6,0.68053093731304,0.6819154680704476,0.0016267507330565145
140.8,0.6857035985042741,0.6870881292616816,0.001406986590090642
141.0,0.6894159708974772,0.6908005016548847,0.00013854520311007423
141.2,0.6932080500829619,0.6945925808403695,-0.0006190532046935759
141.4,0.6962935996116713,0.6976781303690788,-0.0016339723848568521
141.6,0.6990515666096684,0.7004360973670759,-0.002510717701424525
141.8,0.701773112441979,0.7031576431993866,-0.0029431709721808863
142.0,0.7038656367977806,0.7052501675551881,-0.003510624045047539
142.2,0.70636951524305,0.7077540460004575,-0.0031610910656475477
142.4,0.7079280264857961,0.7093125572432036,-0.003241423292227541
142.6,0.7089289460348385,0.710313476792246,-0.0033557499763474663
142.8,0.7098905168399089,0.7112750475973164,-0.0029795350153478672
143.0,0.7102567168805752,0.7116412476379828,-0.0026643297907944508
143.2,0.7103478526317438,0.7117323833891513,-0.002087193724956471
143.4,0.7100759996693956,0.7114605304268031,-0.0013352618160227259
143.6,0.7087084766738676,0.7100930074312751,-0.001142273466023136
143.8,0.7069528357169016,0.7083373664743091,-0.0008035803114201379
144.0,0.7049851822505268,0.7063697130079343,-0.00014782023301884717
144.2,0.701914111682488,0.7032986424398955,-7.297122292848623e-05
144.4,0.698643261206735,0.7000277919641426,0.00031621306437790153
144.6,0.6947117423795712,0.6960962731369787,0.0005486511768001412
144.8,0.6900880586882926,0.6914725894457001,0.0005808691461942628
145.0,0.6851638619401996,0.6865483926976071,0.0007907769546440235
145.2,0.6797670529113946,0.6811515836688021,0.0009907917903628771
145.4,0.6738948932978596,0.6752794240552671,0.0011609755631553087
145.6,0.6679421093486784,0.6693266401060859,0.0016771677793721018
145.8,0.6610344639549728,0.6624189947123803,0.0016445915846526882
146.0,0.6539200433175575,0.655304574074965,0.001789180457382522
146.2,0.6463958420628516,0.6477803728202591,0.001884211103863942
146.4,0.6380111456157321,0.6393956763731397,0.0014537433461740967
146.6,0.6300286922249617,0.6314132229823692,0.0017338516415636995
146.8,0.6212774772304356,0.6226620079878431,0.001525513266435019
147.0,0.6117557481047282,0.6131402788621357,0.0007977042594680128
147.2,0.6025024560874208,0.6038869868448283,0.0005589715200103873
147.4,0.592444318570167,0.5938288493275745,-0.00029536231001237034
147.6,0.5823471160289282,0.5837316467863357,-0.0010317351602832092
147.8,0.5726095167748377,0.5739940475322453,-0.0012843279449026301
148.0,0.5623223437894835,0.5637068745468911,-0.0019955775382728413
148.2,0.55224995150579,0.5536344822631976,-0.0024345518972337388
148.4,0.5426018869191782,0.5439864176765857,-0.002425013253525621
148.6,0.5339389281412473,0.5353234588986548,-0.0014390775707574521
148.8,0.5249345811414848,0.5263191118988924,-0.0008353919326687942
149.0,0.5161449857589857,0.5175295165163932,-8.888237306270419e-05
149.2,0.5075735948919433,0.5089581256493508,0.0007742869559677068
149.4,0.49904945287618974,0.5004339836335973,0.0015553632885206836
149.6,0.4906877433988339,0.4920722741562414,0.0023439266420844374
149.8,0.48262998692865133,0.4840145176860588,0.003258454963381896
150.0,0.47348734157037303,0.4748718723277805,0.002889977987023229
150.5,0.4536092372667689,0.45499376802417635,0.003978493271519945
151.0,0.43361009188290767,0.43499462264031513,0.0034495370512613865
151.5,0.4143584683165572,0.41574299907396467,0.0021657779048065984
152.0,0.3960552462380269,0.39743977699543437,0.00048270592559562786
152.5,0.37918083404858993,0.3805653648059974,-0.0008189711619511764
153.0,0.3638824424281444,0.36526697318555185,-0.001180015997802597
153.5,0.3485422935903659,0.3499268243477734,-0.0017443977458941329
154.0,0.33275269150049486,0.3341372222579023,-0.0024438359014660183
154.5,0.31653653326785847,0.31792106402526593,-0.0028381332958328787
155.0,0.29949662531278887,0.30088115607019633,-0.003018947966106189
155.5,0.28176446602254396,0.2831489967799514,-0.0026985528871422138
156.0,0.26323145640513634,0.2646159871625438,-0.001995523951020872
156.5,0.24394594956211327,0.24533048031952076,-0.0010324279724861218
157.0,0.22478098824595305,0.22616551900336054,0.0007571732500190054
157.5,0.20586845603301848,0.20725298679042597,0.0031029393977398123
158.0,0.18630437967219632,0.1876889104296038,0.0046509211139662
158.5,0.1670352863637533,0.1684198171211608,0.005898197682495332
159.0,0.1469660397033777,0.1483505704607852,0.005342955412480949
159.5,0.12796552666406927,0.12935005742147676,0.004521811916316412
160.0,0.10947858196143892,0.11086311271884641,0.002640527589397354
160.5,0.09209564477358152,0.09348017553098902,0.00014960967183083596
161.0,0.07694311270888503,0.07832764346629252,-0.0018704179032701246
161.5,0.06373301570745493,0.06511754646486242,-0.003672524486100448
162.0,0.05185485632759887,0.053239387085006355,-0.005769272639142252
162.5,0.04203846300817085,0.04342299376557834,-0.007289511727081227
163.0,0.034000909364159664,0.03538544012156715,-0.008350070925572821
163.5,0.02714703904374192,0.02853156980114941,-0.009371180589068419
164.0,0.02217415302171745,0.023558683779124935,-0.009484156404601415
164.5,0.0180713310915762,0.019455861848983687,-0.009540668277168853
165.0,0.01478840878171869,0.01617293953912618,-0.009448877517133959
165.5,0.012403619087214397,0.013788149844621884,-0.009008042148768115
166.0,0.010257066265362116,0.011641597022769604,-0.008775154296234466
166.5,0.009046151220966844,0.010430681978374332,-0.007968206557881516
167.0,0.007722805843001896,0.009107336600409383,-0.007566846161907101
167.5,0.006797837328584616,0.008182368085992105,-0.007005592035778932
168.0,0.005585382738929368,0.006969913496336856,-0.006926945588889891
168.5,0.0049948897715187054,0.006379420528926193,-0.006387181873429492
169.0,0.004581470512937838,0.005966001270345325,-0.005804075950434606
169.5,0.0042649356653576,0.005649466422765087,-0.005236287056615852
170.0,0.0035861411906237192,0.004970671948031207,-0.00512575374580595
170.5,0.0038269902953180185,0.0052115210527255065,-0.0041767182109277625
171.0,0.003450735208116392,0.00483526596552388,-0.003914687344699618
171.5,0.0030313158234455285,0.004415846580853016,-0.003756545732915992
172.0,0.0030712000234526388,0.004455730780860126,-0.0031923133507131465
172.5,0.0026580505580549945,0.0040425813154624825,-0.0031281879871815996
173.0,0.0026992713355633406,0.004083802092970828,-0.0026517918589687405
173.5,0.002410619563538226,0.0037951503209457138,-0.0025434147283249693
174.0,0.002420980628451341,0.0038055113858588285,-0.0021711404244080705
174.5,0.0020188740679244767,0.0034034048253319643,-0.00224427576483258
175.0,0.001563781672929083,0.002948312430336571,-0.0024019804457418624
175.5,0.0023705929399477827,0.0037551236973552703,-0.001328793503596991
176.0,0.002042642539622245,0.0034271732970297323,-0.001421573002124169
176.5,0.0018207828768120615,0.003205313634219549,-0.001440397291326792
177.0,0.002339159843784592,0.0037236906011920796,-0.0007527511800966592
177.5,0.0021469902580413215,0.003531521015448809,-0.0008116902033082438
178.0,0.002407378960446958,0.0037919097178544456,-0.00045693736367091904
178.5,0.002576370937522935,0.003960901694930422,-0.00023571066610427426
179.0,0.002965884877764365,0.0043504156351718525,0.00016036920618022355
179.5,0.0034648019624445086,0.004849332719851996,0.000616566272493067
180.0,0.0036517898036336712,0.005036320561041158,0.000708089489697061
180.5,0.004191520178704785,0.005576050936112273,0.0010965783970604505
181.0,0.003985959569351546,0.005370490326759033,0.0006816829499558391
181.5,0.004453037322679713,0.0058375680800872,0.000880028223984055
182.0,0.004964074293975695,0.006348605051383183,0.0010629294605300488
182.5,0.005178902589534446,0.006563433346941934,0.0008917685043845864
183.0,0.0053491281944087555,0.006733658951816243,0.0006214631046305447
183.5,0.005471628357227821,0.006856159114635309,0.00025410157437671336
184.0,0.00618868143939999,0.007573212196807478,0.00043912385830143473
184.5,0.006772682362237794,0.008157213119645281,0.00045798990278163917
185.0,0.0071463876225829875,0.008530918379990475,0.00024427291792351695
185.5,0.007463827511324945,0.008848358268732433,-3.568435060735675e-05
186.0,0.007959299237170689,0.009343829994578176,-0.00013412884190442016
186.5,0.008307773744978066,0.009692304502385554,-0.00036192418132895143
187.0,0.008632738564746174,0.010017269322153662,-0.0005812019070246827
187.5,0.009007279260214957,0.010391810017622445,-0.0007048082416199457
188.0,0.009136742215739648,0.010521272973147136,-0.001014174532850149
188.5,0.009906450704321891,0.011290981461729379,-0.0006121094037387087
189.0,0.010135613412280113,0.0115201441696876,-0.0006693447716988026
189.5,0.010449502882316185,0.011834033639723672,-0.0005527330660098292
190.0,0.010633994647504879,0.012018525404912366,-0.00047098490821839006
190.5,0.010861440623456647,0.012245971380864135,-0.00024896029197259313
191.0,0.010782779266006768,0.012167310023414256,-0.0002356046765994678
191.5,0.010647167021177493,0.01203169777858498,-0.0001842468482215042
192.0,0.010411820628898684,0.011796351386306171,-0.00014257737739514428
192.5,0.010630839750002266,0.012015370507409754,0.00043644735970164994
193.0,0.010507576388706008,0.011892107146113495,0.0007473229469944446
193.5,0.010140064705568648,0.011524595462976135,0.000877827881857484
194.0,0.009813639812918409,0.011198170570325896,0.0011020727503688633
194.5,0.009119298317420078,0.010503829074827565,0.0009992971242189005
195.0,0.008432430725595417,0.009816961483002904,0.0009330227972167392
195.5,0.007520758647388214,0.0089052894047957,0.0006593777592175751
196.0,0.006820476325793085,0.008205007083200572,0.0006035757090676963
196.5,0.005896360823561668,0.007280891580969156,0.0003203050038368309
197.0,0.004998262523175121,0.006382793280582609,5.043268257276176e-05
197.5,0.004118046522134267,0.005502577279541754,-0.000221907652434474
198.0,0.003370024127402359,0.004754554884809846,-0.0003888029302079382
198.5,0.002739458061286826,0.004123988818694314,-0.00047003398905868816
199.0,0.0023402854863848253,0.003724816243792313,-0.00035538368871613655
199.5,0.0014466819121167745,0.002831212669524262,-0.0007731476846879262
200.0,0.0013627293565061263,0.002747260113913614,-0.0004205746819188603
200.5,0.0004591124363764592,0.0018436431937839466,-0.0009273025766956045
201.0,0.0002493785550255465,0.001633909312433034,-0.0007792448702068624
201.5,0.00011960666685339838,0.001504137424260886,-0.0005890743434057997
202.0,-0.0003966111912642885,0.000987919566143199,-0.000821392496464982
202.5,-0.0003666715044118697,0.0010178592529956178,-0.0005413747462084096
203.0,-0.000898737707520527,0.00048579304988696055,-0.0008546806124212365
203.5,-0.0007886680569897011,0.0005958627004177864,-0.0005544984649160452
204.0,-0.0009608122436768336,0.00042371851373065395,-0.0005624423693886863
204.5,-0.0008454742363782599,0.0005390565210292277,-0.0003060978792557371
205.0,-0.0009638297912383655,0.000420700966169122,-0.0003040054842521555
205.5,-0.0009374622621703411,0.00044706849523714644,-0.00017524633325372702
206.0,-0.0010867669728404363,0.00029776378456705123,-0.0002378819769311176
206.5,-0.0006170700931298927,0.0007674606642775948,0.0003049041259885986
207.0,-0.0009167585570057952,0.0004677722004016924,6.666484695219427e-05
207.5,-0.0011839861116896904,0.00020054464571779714,-0.00014901969622725317
208.0,-0.0009752546486675107,0.00040927610873997685,0.00010288040800841868
208.5,-0.0012475166504705873,0.00013701410693690028,-0.00013324853328737437
209.0,-0.0010204498701604748,0.00036408088724701275,0.00012407417874337465
209.5,-0.0012117483447725951,0.00017278241263489241,-4.185239426013121e-05
210.0,-0.0009008626836374658,0.0004836680737700218,0.00029036508859414255
210.5,-0.0009436064150000223,0.0004409243424074652,0.0002656244605284201
211.0,-0.0011883773485340187,0.00019615340887346885,3.612293923191683e-05
211.5,-0.0012494581866775362,0.00013507257072995133,-1.1928012644490596e-05
212.0,-0.0012184821957488428,0.00016604856165864474,3.0246008360400257e-05
212.5,-0.0012577070956132435,0.00012682366179424405,7.215254458647923e-07
213.0,-0.001222759797051001,0.0001617709603564865,4.414412323784555e-05
213.5,-0.0013845307574074876,0.0,-0.0001101556312115721
214.0,-0.0011779061850719745,0.00020662457233551305,0.00010311452561005155
214.5,-0.000979915527026355,0.00040461523038113245,0.0003070687099588431
215.0,-0.0008989493070671662,0.00048558145034032136,0.0003934315296988538
215.5,-0.0012205857526796907,0.0001639450047277969,7.671688856183148e-05
216.0,-0.0009165738396671616,0.00046795691774032596,0.00038524945151917957
216.5,-0.0009888736486459982,0.0003956571087614894,0.00031712799959007353
217.0,-0.0008535520194212678,0.0005309787379862198,0.000456332803735989
217.5,-0.0008096143917144414,0.0005749163656930461,0.0005038962355137847
218.0,-0.0007042335343429959,0.0006802972230644916,0.0006126760075363818
218.5,-0.0007605018588705187,0.0006240288985369689,0.0005596044313549045
219.0,-0.0006860902025229991,0.0006984405548844884,0.0006370308802452236
219.5,-0.0005485651949214377,0.0008359655624860499,0.0007774054038953848
220.0,-0.00022565710687656775,0.0011588736505309199,0.0011030116484674504
