wavelength,absorbance,absorbance_bk,residual_3gauss,Gauss_1,Gauss_2,Gauss_3,Gauss_4,Gauss_fit
117.0,0.3174547918008952,0.32516951786589604,-0.007471424308411578,3.1644352475446036e-07,4.747751082670703e-48,0.33264062573078285,1.973071898269594e-121,0.3326409421743076
117.5,0.3164308196777276,0.32414554574272847,-0.0059088577251462104,5.861866465382515e-07,1.765786765944488e-46,0.3300538172812281,7.575770248952385e-119,0.3300544034678747
118.0,0.3171914337421437,0.32490615980714455,-0.002147406494347026,1.06522847590069e-06,5.987127591480545e-45,0.32705250107301564,2.592020734318332e-116,0.32705356630149157
118.5,0.3133667648517284,0.3210814909167292,-0.00257991394023549,1.8997596827648416e-06,1.8542819506121442e-43,0.3236595050972819,7.920760121697679e-114,0.3236614048569647
119.0,0.311459060178682,0.31917378624368287,-0.0007278807933584486,3.3264514949526553e-06,5.255780133293557e-42,0.31989834058554634,2.16659792573156e-111,0.3199016670370413
119.5,0.30965421067170606,0.3173689367367069,0.0015701967516436044,5.720891488595741e-06,1.3658737480228653e-40,0.3157930190935747,5.316395090571905e-109,0.3157987399850633
120.0,0.3059223427804485,0.31363706884544934,0.00225952262819179,9.667528577384693e-06,3.2605046081937944e-39,0.31136787868868016,1.1727532304393716e-106,0.31137754621725755
120.5,0.30058690285665723,0.3083016289216581,0.0016381504142409797,1.605837940927916e-05,7.161938086812885e-38,0.30664742012800783,2.330497620460307e-104,0.3066634785074171
121.0,0.2985739037984415,0.30628862986344235,0.004606247016704923,2.6229126625914343e-05,1.4501085778786286e-36,0.3016561537201115,4.180470974369281e-102,0.30168238284673743
121.5,0.2937806418442228,0.30149536790922365,0.005034768118235,4.214241252076983e-05,2.7110032575430515e-35,0.2964184573784679,6.78263445929439e-100,0.29646059979098865
122.0,0.2892751751357652,0.296989901200766,0.005964826147398239,6.662884852303695e-05,4.687459511067846e-34,0.29095844620484473,9.972663030604231e-98,0.2910250750533678
122.5,0.28231572166759134,0.2900304477325922,0.004626897738470581,0.00010369621046033346,7.508011337270503e-33,0.28529985378366124,1.3313355945937457e-95,0.2854035499941216
123.0,0.27571888950976514,0.283433615574766,0.0038087742298740235,0.00015891611866425252,1.1157787461572814e-31,0.2794659252262277,1.616715020774768e-93,0.27962484134489196
123.5,0.2699026619738112,0.27761738803881203,0.003898171314009158,0.00023989484841214657,1.5408744802932333e-30,0.27347932187639074,1.7891098229165195e-91,0.27371921672480287
124.0,0.2629847463296028,0.2706994723946036,0.0029806044622207595,0.00035683045572395763,1.9803751274440046e-29,0.26736203747665893,1.807460622350013e-89,0.26771886793238286
124.5,0.2545621024280676,0.26227682849306844,0.0006183510874807063,0.0005231519095081326,2.3722412905323364e-28,0.2611353254960796,1.6698706148511298e-87,0.26165847740558773
125.0,0.24810376011914984,0.25581848618415065,0.00024262161554600148,0.0007562273309198836,2.6523276784077377e-27,0.25481963723768475,1.413241148484379e-85,0.25557586456860465
125.5,0.2402485874190364,0.24796331348403725,-0.0015493747108405453,0.0010781179213706989,2.7718138064125035e-26,0.2484345702735071,1.0974644956747628e-83,0.2495126881948778
126.0,0.2339669083138305,0.24168163437883133,-0.0018335344810977983,0.0015163421615535645,2.7112365462161936e-25,0.24199882669837558,7.832692211643182e-82,0.24351516885992913
126.5,0.22808528558137617,0.235800011646377,-0.0018347711502830766,0.002104602147589917,2.4855459500270138e-24,0.23553018064907016,5.1459833765377465e-80,0.2376347827966601
127.0,0.22053600032544035,0.2282507263904412,-0.003678139679329062,0.0028834115677212504,2.138448188401541e-23,0.229045454502049,3.117007939554553e-78,0.23192886606977026
127.5,0.21553398065780377,0.2232487067228046,-0.003212350562663585,0.003900554145514776,1.7288488990204113e-22,0.22256050313995343,1.7433340498460582e-76,0.2264610572854682
128.0,0.2105982775021,0.21831300356710084,-0.0029884959783343656,0.0052112938820135565,1.315052685194802e-21,0.21609020566342166,9.016610322409e-75,0.2213014995454352
128.5,0.2058857996185879,0.21360052568358875,-0.0029261938836092904,0.006878255647696612,9.4230489832268e-21,0.20964846391950143,4.318759089365289e-73,0.21652671956719804
129.0,0.2020313726695164,0.20974609873451724,-0.0024730064770570603,0.008970897991497423,6.368314949386256e-20,0.2032482072200769,1.918435435691088e-71,0.2122191052115743
129.5,0.19895202402693848,0.20666675009193933,-0.0017991630441898943,0.011564510503741207,4.063998537060024e-19,0.196901402632388,7.914333285680957e-70,0.20846591313612922
130.0,0.19661525900560936,0.2043299850706102,-0.0010277714013089412,0.014738686234005715,2.4517626634996395e-18,0.19061907023791344,3.0363652690390058e-68,0.20535775647191915
130.5,0.19490591461604664,0.2026206406810475,-0.00036590749158138536,0.01857524539782652,1.3998716837086297e-17,0.18441130277480233,1.0847941153818059e-66,0.20298654817262887
131.0,0.1941533400608594,0.20186806612586025,0.0004251580070754324,0.023155619016924284,7.5728848419271e-17,0.17828728910186045,3.6137919529755794e-65,0.20144290811878482
131.5,0.1935109444999178,0.20122567056491864,0.00041259106967597714,0.028557738547212556,3.885669227820102e-16,0.17225534094802972,1.1239797440218175e-63,0.20081307949524266
132.0,0.19405255862264384,0.20176728468764468,0.000591844693044935,0.034852517554890335,1.8930390084236625e-15,0.1663229224397075,3.267974887267707e-62,0.20117543999459975
132.5,0.19620483101613703,0.20391955708113788,0.0013228240201009211,0.0421000511325908,8.765780555937605e-15,0.16049668192843738,8.893195969643622e-61,0.20259673306103695
133.0,0.19860396841641367,0.20631869448141452,0.0011905141078000503,0.05034569470063792,3.861867109592606e-14,0.15478248567293793,2.26787394996258e-59,0.20512818037361447
133.5,0.2022965311626398,0.21001125722764064,0.0012095914953339504,0.059616212770548835,1.620349737160546e-13,0.1491854529615958,5.425928047094146e-58,0.20880166573230668
134.0,0.2069151141304684,0.21462984019546924,0.0010036407973888217,0.06991620710346984,6.481040644788719e-13,0.14370999229396247,1.2193400539220805e-56,0.21362619939808042
134.5,0.21234666093261803,0.22006138699761887,0.0004765086970058008,0.08122504002603313,2.473524185253104e-12,0.1383598382721064,2.5766929560931722e-55,0.21958487830061307
135.0,0.2191517788283207,0.22686650489332155,0.00023395509500970246,0.09349446090480351,9.01623387912009e-12,0.1331380888844921,5.125884264296976e-54,0.22663254979831185
135.5,0.2262621625720848,0.23397688863708566,-0.0007174757386584352,0.10664712144816481,3.141704998470724e-11,0.12804724289616223,9.60980725407688e-53,0.2346943643757441
136.0,0.23494116950042168,0.24265589556542252,-0.001009470936807505,0.12057612930840655,1.047423179999731e-10,0.12308923708908116,1.6996605161282477e-51,0.24366536650223003
136.5,0.2442526539031316,0.25196737996813245,-0.001443844769145608,0.1351457412774595,3.344049512935702e-10,0.11826548312541357,2.838989803620505e-50,0.25341122473727806
137.0,0.2548399089579545,0.26255463502295534,-0.001215509966707884,0.15019324013231383,1.023260543048649e-09,0.11357690383408887,4.48294060184411e-49,0.2637701449896632
137.5,0.26615988744487507,0.2738746135098759,-0.0006813348686687815,0.16553197662795283,3.003476921017537e-09,0.10902396874711498,6.698754712609939e-48,0.2745559483785447
138.0,0.2778248434236073,0.28553956948860815,-2.2662205638956934e-05,0.180955494494237,8.463322457361739e-09,0.10460672873668762,9.481625870071473e-47,0.2855622316942471
138.5,0.2899142978497116,0.29762902391471246,0.0010615554268229022,0.19624259594773455,2.2913033638705487e-08,0.10032484962712138,1.272466586010286e-45,0.29656746848788956
139.0,0.30169719019968044,0.3094119162646813,0.0020710596093431732,0.21116315233131575,5.964702763086345e-08,0.09617764467699474,1.6206664758674516e-44,0.3073408566553381
139.5,0.31249372722550905,0.3202084532905099,0.0025597754052332777,0.22548442262443796,1.494142045842727e-07,0.09216410584663409,1.9607639749276005e-43,0.3176486778852766
140.0,0.32238457026366,0.33009929632866086,0.0028383876646557726,0.23897761445283217,3.60427003195514e-07,0.08828293378416975,2.255454993756084e-42,0.3272609086640051
140.5,0.3303089863170705,0.33802371238207135,0.0020658984756440346,0.25142440954251555,8.378839708532379e-07,0.08453256647994088,2.46890957819265e-41,0.3359578139064273
141.0,0.33660646270806516,0.344321188773066,0.0007849249182543816,0.26262317883286435,1.8784679514344002e-06,0.08091120655399585,2.5740428873073502e-40,0.3435362638548116
141.5,0.3412100992297109,0.34892482529471175,-0.0008907171952702297,0.2723946310621709,4.064272873410949e-06,0.07741684715493768,2.5582084387933754e-39,0.349815542489982
142.0,0.3451200742071002,0.35283480027210107,-0.0018076592928482627,0.2805866708960625,8.492208454912072e-06,0.07404729646043197,2.4256512198421226e-38,0.35464245956494933
142.5,0.3478259145915423,0.3555406406565431,-0.002354994060672466,0.28707828605042784,1.714788639806904e-05,0.07080020078038969,2.1960827092644943e-37,0.3578956347172156
143.0,0.3491201642262776,0.35683489029127846,-0.0026539944126726667,0.2917823342107081,3.348421996100795e-05,0.06767306627328198,1.8999651700433323e-36,0.35948888470395113
143.5,0.34942663006666813,0.357141356131669,-0.0022323485412532595,0.2946471563673494,6.326901133740456e-05,0.06466327929423545,1.5720310341391684e-35,0.35937370467292223
144.0,0.3482620761570121,0.35597680222201294,-0.0015640779135614458,0.29565699990613514,0.00011575482876893739,0.061768125400670316,1.244888376354219e-34,0.3575408801355744
144.5,0.3449629183959439,0.35267764446094474,-0.0013436409496572765,0.2948312890432189,0.0002051893201161056,0.05898480704726699,9.442398832203937e-34,0.354021285410602
145.0,0.34085808029246084,0.3485728063574617,-0.0003130993716622954,0.29222282902952645,0.00035261669246155987,0.05631046000713595,6.864981555618227e-33,0.348885905729124
145.5,0.3346858572641318,0.34240058332913265,0.00015552493003750945,0.28791507160971247,0.0005878182291341047,0.053742168560248556,4.787599259825862e-32,0.34224505839909514
146.0,0.327497078467352,0.33521180453235283,0.0009651165221267188,0.28201860084609676,0.000951107670565895,0.05127697949356347,3.2049983077359885e-31,0.3342466880102261
146.5,0.3181364678382808,0.32585119390328166,0.000777703690089504,0.27466701968770485,0.001494555565557942,0.048911914959929366,2.060979638638369e-30,0.32507349021319215
147.0,0.30798461473887284,0.3156993408038737,0.0007608289778133215,0.26601242838251177,0.0022820991987346395,0.04664398424481396,1.2739546503649557e-29,0.31493851182606036
147.5,0.29678104447600245,0.3044957705410033,0.00041694342343462365,0.25622068645775103,0.003387946168521537,0.0444701944912961,7.57462995363106e-29,0.3040788271175687
148.0,0.2849192322779318,0.29263395834293265,-0.00011299018399818506,0.24546664153907005,0.0048927465532572515,0.04238756043460349,4.334942325095719e-28,0.29274694852693084
148.5,0.2732286613830472,0.28094338744804803,-0.0002564428806517971,0.23392949217240994,0.006877224958437562,0.04039311319785234,2.3894696162354506e-27,0.28119983032869983
149.0,0.26273502095135326,0.2704497470163541,0.0007640734103383506,0.22178842975423252,0.009413335651166633,0.03848390820061658,1.2693825123485241e-26,0.26968567360601575
149.5,0.2521238597562462,0.259838585821247,0.001409377996661243,0.20921867849721268,0.012553497095825168,0.03665703223154791,6.50320799830457e-26,0.2584292078245858
150.0,0.2414139026649612,0.24912862872996205,0.0015119969569616087,0.19638802388883034,0.0163189981486009,0.0349096097355692,3.21494207955821e-25,0.24761663177300045
150.5,0.23158157117838793,0.23929629724338877,0.0019144639794694274,0.18345389105297658,0.02068913384576209,0.03323880836518068,1.5345827002174027e-24,0.23738183326391935
151.0,0.22155985057228303,0.22927457663728387,0.001478827659033094,0.17056100631039367,0.02559289882363037,0.03164184384422673,7.076776336696216e-24,0.22779574897825078
151.5,0.2119692867378484,0.21968401280284924,0.000823344207793758,0.1578396492983643,0.030905035105607586,0.030115984191083613,3.154716166623291e-23,0.21886066859505549
152.0,0.20288461942509445,0.2105993454900953,8.846740696849542e-05,0.145404480201003,0.03644784453543308,0.0286585533466907,1.36022802547457e-22,0.2105108780831268
152.5,0.1941770786030552,0.20189180466805604,-0.0007284934999427506,0.13335390759831678,0.041999456318485014,0.027266934251197004,5.675866074775081e-22,0.20262029816799879
153.0,0.1865287512228354,0.19424347728783625,-0.0007733315893921344,0.12176994750807403,0.04730828995791569,0.025938571411238665,2.2932926033195902e-21,0.1950168088772284
153.5,0.1786935218434423,0.18640824790844315,-0.00109367999225915,0.11071851344552493,0.052112441457125104,0.02467097299805226,8.976917822482155e-21,0.1875019279007023
154.0,0.1712442267729226,0.17895895283792343,-0.0009146741916163104,0.10025007061063243,0.0561618439041412,0.023461712514766118,3.406157530665081e-20,0.17987362702953974
154.5,0.1629965747155448,0.17071130078054564,-0.0012382078868640456,0.09040058429936446,0.05924049429872208,0.022308430069323155,1.2534210004251534e-19,0.17194950866740968
155.0,0.1549177402852693,0.16263246635027015,-0.0009549783733782957,0.08119269286312294,0.06118591857292943,0.021208833287596065,4.475534486345389e-19,0.16358744472364845
155.5,0.1458563125390498,0.15357103860405064,-0.0011300959717649994,0.0726370384648561,0.06190339821159375,0.020160697899365778,1.5514060349804112e-18,0.15470113457581564
156.0,0.1363847657628722,0.14409949182787304,-0.0011693094875567522,0.06473369392066085,0.061373239366803535,0.019161868027965417,5.223380407078043e-18,0.1452688013154298
156.5,0.12704572784197624,0.13476045390697708,-0.0005738154054272804,0.057473630490955434,0.059650382608895804,0.0182102562125531,1.708962644295515e-17,0.13533426931240436
157.0,0.11739142202490276,0.12510614808990358,0.00010538937960621886,0.05084017904606666,0.05685673647405207,0.017303843190178574,5.435926344535137e-17,0.12500075871029737
157.5,0.10773716109885476,0.1154518871638556,0.0010331876178617527,0.04481044508187456,0.053167577001062886,0.01644067746305624,1.6818074821654225e-16,0.11441869954599385
158.0,0.09786414459402373,0.10557887065902458,0.0018093158195186115,0.03935664617598219,0.04879403398876397,0.015618874674759314,5.063359193781807e-16,0.10376955483950596
158.5,0.08779969334074049,0.09551441940574133,0.0022664585538459403,0.03444734830539021,0.043963995729091515,0.014836616817412192,1.4840734644793844e-15,0.09324796085189539
159.0,0.07740891887954439,0.08512364494454523,0.0020792109194904124,0.030048584724430952,0.0389036980102419,0.014092151290377738,4.236597973330495e-15,0.08304443402505482
159.5,0.06797597043879804,0.07569069650379888,0.00236017887591089,0.026124847635830957,0.03382188016261607,0.013383789829429183,1.1784519439091398e-14,0.07333051762788799
160.0,0.05809111669688936,0.0658058427618902,0.0015581885828251651,0.022639948558215557,0.0288977982968683,0.01270990732394921,3.195387311329841e-14,0.06424765417906503
160.5,0.04923632234049487,0.056951048405495704,0.0010506495155530801,0.019557748042613184,0.024273710308921063,0.012068940538323877,8.449540789240317e-14,0.055900398889942624
161.0,0.04032873975903893,0.04804346582403977,-0.0003104873568749028,0.016842759213076732,0.020051807215224697,0.011459386752395268,2.1798089802248198e-13,0.04835395318091467
161.5,0.03275241573424699,0.040467141799247826,-0.001168343919147434,0.01446063253826208,0.01629505084498932,0.010879802334595002,5.488505642843175e-13,0.04163548571839526
162.0,0.026379937130547954,0.03409466319554879,-0.0016437090160498075,0.012378531348500069,0.013031039601532209,0.010328801260217008,1.3493098091720023e-12,0.0357383722115986
162.5,0.02057494991327098,0.028289675978271818,-0.0023386595215830613,0.010565408984236437,0.010257872926195776,0.009805053586182555,3.240109186931841e-12,0.03062833549985488
163.0,0.01606716074498313,0.02378188680998397,-0.002468596060527496,0.008992199196893166,0.00795099977339782,0.009307283892617856,7.602625221714636e-12,0.026250482870511467
163.5,0.012055046054604144,0.019769772119604984,-0.0027666037250389935,0.007631931627323627,0.006070174499289291,0.00883426970059348,1.7437577542080924e-11,0.022536375844643977
164.0,0.008669375386521346,0.016384101451522186,-0.003026376876666532,0.006459783964364134,0.004565854450249667,0.008384839874464976,3.910994259409235e-11,0.019410478328188718
164.5,0.005786109148808774,0.013500835213809612,-0.003294728732919923,0.005453081835406088,0.003384609009107108,0.007957873016409146,8.580719408493648e-11,0.016795563946729535
165.0,0.004078135603411348,0.011792861668412187,-0.0028240225007894835,0.004591256692674706,0.0024733314323431084,0.0075522958599582345,1.8422562014165018e-10,0.01461688416920167
165.5,0.0018137383605112865,0.009528464425512126,-0.0032766158146267533,0.00385577101269862,0.0017822271716536307,0.007167081668602283,3.87184345946644e-10,0.01280508024013888
166.0,0.0006811625697951962,0.008395888634796036,-0.002902063366383585,0.003230019090281897,0.0012666834692001815,0.006801248644848602,7.968489389122927e-10,0.01129795200117962
166.5,3.450961303889207e-05,0.007749235678039731,-0.002292038774179268,0.0026992106382832627,0.000888203852973264,0.006453858354498136,1.6064643358734738e-09,0.010041274452219
167.0,-0.0010718516545947213,0.006642874410406117,-0.0023460106925779524,0.002250243345277665,0.0006146244138267693,0.006124014170317736,3.1735618996087458e-09,0.00898888510298407
167.5,-0.0018487999869426068,0.005865926078058232,-0.0022363365539112556,0.001871569528651515,0.0004198272192385575,0.005810859738751039,6.145328376942915e-09,0.008102262631969488
168.0,-0.002437917108133064,0.005276808956867775,-0.002072983071032863,0.0015530610752313675,0.00028314181163313477,0.005513577472819961,1.1668216175499913e-08,0.007349792027900638
168.5,-0.003117743407315444,0.004596982657685395,-0.002108891452233922,0.0012858760012281595,0.0001885893046742997,0.005231387073916741,2.173010011659968e-08,0.006705874109919317
169.0,-0.003865768733516983,0.0038489573314838556,-0.0023010393780731613,0.001062329197219422,0.00012408372201618988,0.004963544084774619,3.9705546786137015e-08,0.006149996709557017
169.5,-0.004106655975612048,0.003608070089388791,-0.00205777668363213,0.0008757692555666414,8.066783785115593e-05,0.004709338475528683,7.120407444169958e-08,0.005665846773020921
170.0,-0.004374426357582608,0.0033402997074182305,-0.001900210898568972,0.0007204627061571995,5.1829277267654245e-05,0.004468093264435354,1.253581269944227e-07,0.0052405106059872026
170.5,-0.004350584458085765,0.003364141606915074,-0.0014996431872858268,0.0005914865074739373,3.2918380885096357e-05,0.004239163174509086,2.1673133278202515e-07,0.004863784794200901
171.0,-0.004991286927931464,0.002723439137069375,-0.0018041637756341334,0.0004846292472262508,2.067226210179613e-05,0.004021933327052462,3.6807632299935345e-07,0.004527602912703509
171.5,-0.005325225545778572,0.002389500519222267,-0.001836071524767233,0.00039630119215450254,1.2838658496212373e-05,0.0038158179728028227,6.142205359620773e-07,0.0042255720439895
172.0,-0.005371763519623932,0.0023429625453769065,-0.0016096444833118432,0.00032345308137262416,7.887285364449894e-06,0.003620259261189798,1.0074007618778791e-06,0.00395260702868875
172.5,-0.005613419603545326,0.0021013064614555125,-0.001603341419389412,0.00026350337271773065,4.794067946730414e-06,0.003434726047993702,1.6243921867619221e-06,0.0037046478808449245
173.0,-0.005706658414464696,0.002008067650536143,-0.0014703780161754942,0.00021427351815570117,2.8836353429351768e-06,0.003258712741512235,2.5757717007656265e-06,0.003478445666711637
173.5,-0.005947164116011342,0.0017675619489894972,-0.0015038414159124778,0.00017393075392314598,1.7168216811186329e-06,0.0030917381871801044,4.0176021176059015e-06,0.003271403364901975
174.0,-0.00582595023538696,0.001888775829613879,-0.0011926842238071558,0.00014093783599374745,1.0119202976174085e-06,0.0029333445904430214,6.165706686648595e-06,0.003081460053421035
