wavelength,absorbance,absorbance_bk,residual_3gauss,Gauss_1,Gauss_2,Gauss_3,Gauss_4,Gauss_fit
117.0,0.5771628536125275,0.5767619973730487,-0.0075479792542404445,2.6053517475670095e-07,1.9205115131589882e-27,0.5843097160921144,2.337464301718754e-59,0.5843099766272891
117.5,0.574599821130888,0.5741989648914092,-0.0061952912211789,4.979340675163161e-07,1.4522086580998358e-26,0.5803937581785206,4.26335509390935e-58,0.5803942561125881
118.0,0.5720549805996296,0.5716541243601507,-0.004119142898718509,9.326623621656544e-07,1.0427650864045305e-25,0.5757723345965071,7.347186215588824e-57,0.5757732672588692
118.5,0.5671580347001224,0.5667571784606436,-0.003725994727415638,1.7128339847524333e-06,7.118077534836727e-25,0.5704814603540744,1.1976814223966215e-55,0.5704831731880592
119.0,0.5615346573927612,0.5611338011532824,-0.0034276449311969603,3.0855374466584987e-06,4.624023317454326e-24,0.5645583605470327,1.848795469610734e-54,0.5645614460844793
119.5,0.5608682609712913,0.5604674047318124,0.002420765581217621,5.454477942095922e-06,2.861606127878611e-23,0.5580411846726527,2.7053872034828536e-53,0.5580466391505948
120.0,0.5561781060500698,0.555777249810591,0.004799049915734099,9.46586164732578e-06,1.688780388319397e-22,0.5509687340332096,3.756800749407977e-52,0.5509781998948569
120.5,0.5502110939439375,0.5498102377044587,0.0064139007004238024,1.613337726838044e-05,9.51350735453046e-22,0.5433802036267665,4.9556421203537496e-51,0.5433963370040349
121.0,0.5435335302092833,0.5431326739698045,0.007790718515947592,2.701581645244883e-05,5.1207432732099916e-21,0.5353149396374044,6.215980085171053e-50,0.5353419554538569
121.5,0.5369962917384795,0.5365954354990007,0.009738758585158491,4.446354606860842e-05,2.6360958418037184e-20,0.5268122133677736,7.421168738483052e-49,0.5268566769138422
122.0,0.5287666842169417,0.5283658279774629,0.010382863429670208,7.195234247336727e-05,1.2990526701273928e-19,0.5179110122053193,8.441188894912644e-48,0.5179829645477927
122.5,0.5172039124600956,0.5168030562206167,0.008038683712306205,0.00011452452696322448,6.13369257034018e-19,0.5086498479813473,9.156086848331767e-47,0.5087643725083105
123.0,0.5076169287872276,0.5072160725477488,0.00797013239281641,0.00017935728479310495,2.7773477988824077e-18,0.4990665828701393,9.47956686497313e-46,0.4992459401549324
123.5,0.4974738596149097,0.49707300337543087,0.007598254789714098,0.00027647580148089883,1.2070524765099142e-17,0.48919827278423583,9.376223246705689e-45,0.48947474858571677
124.0,0.4851126277382109,0.48471177149873207,0.005211119764842231,0.0004196236820000474,5.0393641528863435e-17,0.47908102805188973,8.86764348860064e-44,0.47950065173388984
124.5,0.4724535174201584,0.47205266118067957,0.0026754757884963065,0.0006272943788831338,2.0227249873475406e-16,0.46874989101329995,8.026033942067515e-43,0.46937718539218326
125.0,0.45884079618122126,0.4584399399417424,-0.0007227046929382253,0.0009239145914248752,7.811944767889944e-16,0.458238730043255,6.95776491498623e-42,0.45916264463468065
125.5,0.4472211722694328,0.446820316029954,-0.0021009870635200767,0.001341153695155878,2.9052570784912305e-15,0.44758014939831525,5.78189344133829e-41,0.44892130309347406
126.0,0.43466022667507814,0.4342593704355993,-0.004465356337860216,0.001919312577552269,1.0412313490079886e-14,0.43680541419589686,4.609457806583377e-40,0.43872472677345953
126.5,0.4233142888138016,0.4229134325743228,-0.005739678921248936,0.0027087217360942067,3.598933960181898e-14,0.42594438975944154,3.528168780158123e-39,0.4286531114955717
127.0,0.41222047978764553,0.4118196235481667,-0.006976924685310859,0.0037710537262949694,1.2005601517262668e-13,0.41502549450706255,2.594786228122331e-38,0.41879654823347756
127.5,0.40162017449973375,0.4012193182602549,-0.008036778507632458,0.005180431248038611,3.8680288786707294e-13,0.40407566551946195,1.8349842886707103e-37,0.4092560967678874
128.0,0.3921636881720764,0.3917628319325976,-0.00838169603302441,0.007024192069325166,1.2044718134658629e-12,0.3931203358950924,1.2487067994925458e-36,0.400144527965622
128.5,0.3839280808396125,0.38352722460013366,-0.00805935705371491,0.00940315866492926,3.6274663612959167e-12,0.38218342298529184,8.182725396966375e-36,0.3915865816538486
129.0,0.37671056646279777,0.37630971022331894,-0.00740887335475876,0.012431256969556279,1.0573093170173658e-11,0.37128732659794833,5.167139896615739e-35,0.3837185835780777
129.5,0.37060439907318155,0.3702035428337027,-0.006483731197880593,0.01623433773770007,2.984546300524197e-11,0.3604529362640378,3.1464156380820804e-34,0.3766872740315833
130.0,0.3658423689987533,0.36544151275927444,-0.0052062116430066085,0.02094807764495986,8.164161927899511e-11,0.3496996466756796,1.8487924377994465e-33,0.37064772440228105
130.5,0.36275033396367107,0.36234947772419224,-0.003410779228789962,0.026714876310367997,2.165585140402826e-10,0.3390453804260557,1.0489452148317373e-32,0.3657602569529822
131.0,0.36063246679495187,0.36023161055547304,-0.001954726497499004,0.033679719286138346,5.573611194778605e-10,0.32850661720947255,5.750298850577749e-32,0.36218633705297204
131.5,0.3597526951018727,0.35935183886239386,-0.000731634762215605,0.041985043559034214,1.3926995107861087e-09,0.31809842867287574,3.0477229563752693e-31,0.36008347362460946
132.0,0.35984460302731663,0.3594437467878378,-0.0001554921644834617,0.05176471742438275,3.3805974401843325e-09,0.3078345181473411,1.5627042179735147e-30,0.35959923895232127
132.5,0.361632066980296,0.36123121074081715,0.00036661275656713066,0.06313732547962914,7.976184547194043e-09,0.29772726452843634,7.7563515264066e-30,0.36086459798425
133.0,0.3655869010395481,0.3651860448000693,0.0011992312556710627,0.07619902562489941,1.8302384085373004e-08,0.2877877696171147,3.728853287880458e-29,0.3639868135443982
133.5,0.3706393365464813,0.37023848030700246,0.0011962196495280963,0.09101631151349673,4.086680215861089e-08,0.2780259082771755,1.7373311433189492e-28,0.36904226065747436
134.0,0.3780715500576597,0.37767069381818086,0.001601160013108005,0.1076190641523669,8.88421016614282e-08,0.2684503808106043,7.849221553010777e-28,0.37606953380507285
134.5,0.38644685056984257,0.38604599433036374,0.00098273477219174,0.12599430442012707,1.8814029835774573e-07,0.25906876699774656,3.4407200888862954e-27,0.385063259558172
135.0,0.3970047620926513,0.39660390585317246,0.0006348765052177074,0.14608105973803093,3.8831525075693977e-07,0.24988758129467306,1.464158217020947e-26,0.39596902934795475
135.5,0.4091259142706407,0.4087250580311619,4.521716477440263e-05,0.1677667306096051,7.815318756509701e-07,0.24091232872490673,6.051665018708398e-26,0.4086798408663875
136.0,0.42249451881357225,0.4220936625740934,-0.0009407192624783511,0.1908852862299207,1.5345602342508535e-06,0.23214756104641682,2.430734477830203e-25,0.42303438183657177
136.5,0.4376730458857266,0.43727218964624776,-0.0015452196027817,0.21521753535068036,2.9410811499439625e-06,0.22359693281719914,9.4928993686035e-25,0.43881740924902946
137.0,0.45463463994989056,0.45423378371041173,-0.0015285918096714646,0.24049361394047958,5.504556035596316e-06,0.21526325702356802,3.6064289605993405e-24,0.4557623755200832
137.5,0.47279272567478975,0.4723918694353109,-0.0011644677251882452,0.2663977117667044,1.0065419535227387e-05,0.20714855997425952,1.333481707541033e-23,0.47355633716049916
138.0,0.49257218102839806,0.49217132478891923,0.0003242653576561727,0.29257493412943025,1.799010137333234e-05,0.19925413520045945,4.801065611265649e-23,0.49184705943126306
138.5,0.5123583844375137,0.5119575281980349,0.001705417687508315,0.3186400715738603,3.144279988772484e-05,0.1915805961367785,1.6839711014674913e-22,0.5102521105105265
139.0,0.5318058000878272,0.5314049438483484,0.003035314974075498,0.3441879383730595,5.376311026620813e-05,0.18412792739094713,5.756777579620135e-22,0.5283696288742729
139.5,0.5499912000660492,0.5495903438265703,0.0037999891581010914,0.36880484791199797,8.997231593284367e-05,0.1768955344405384,1.918975731253645e-21,0.5457903546684693
140.0,0.566236128783656,0.5658352725441772,0.00372482776513694,0.392080726273015,0.00014742688270205246,0.16988229162332327,6.240195577360959e-21,0.5621104447790403
140.5,0.5801708727967961,0.5797700165573173,0.0028254716513703704,0.413621328712782,0.00023662787918631842,0.16308658831397857,1.980410610535079e-20,0.5769445449059469
141.0,0.5911805617081447,0.5907797054686659,0.0008411345716207164,0.433060019349679,0.00037217834360052734,0.1565063732037656,6.136581447158386e-20,0.5899385708970452
141.5,0.5991270071773792,0.5987261509379004,-0.002055503826670968,0.45006860181033487,0.0005738563326371607,0.15013919662159933,1.8573519467029767e-19,0.6007816547645713
142.0,0.6060613487465938,0.605660492507115,-0.003556243351243382,0.4643667450627677,0.0008677399409207449,0.14398225085466984,5.493346614306968e-19,0.6092167358583583
142.5,0.6113517034225702,0.6109508471830913,-0.004098474650725992,0.4757296294596914,0.0012872839296183501,0.13803240844450756,1.588290895582137e-18,0.6150493218338173
143.0,0.6140783422163986,0.6136774859769197,-0.004476518900689341,0.48399353690399116,0.0018742095233218695,0.13228625845029612,4.491020821352464e-18,0.6181540048776091
143.5,0.6151461071621559,0.6147452509226771,-0.003733143650753168,0.4890592188900634,0.0026790349981034483,0.12674014068526343,1.2423685734015661e-17,0.6184783945734302
144.0,0.6144583932924491,0.6140575370529703,-0.0019866822773182413,0.49089298952692384,0.0037610518589476,0.12139017794441707,3.3636541158129176e-17,0.6160442193302885
144.5,0.6108640567037751,0.6104632004642963,-0.0004822533573639598,0.4895256003529537,0.005187547216052184,0.11623230625265416,8.916401426149112e-17,0.6109454538216602
145.0,0.6049243072063629,0.6045234509668841,0.0011800000846204917,0.4850490534423132,0.007032094268325319,0.11126230317162489,2.314963238275178e-16,0.6033434508822636
145.5,0.5966945117053982,0.5962936554659194,0.0028344631477493776,0.4776115938061489,0.00937178430035274,0.10647581421166775,5.888850502209588e-16,0.59345919231817
146.0,0.5863585514362545,0.5859576951967757,0.004394773694301524,0.4674111876889451,0.012283356411707665,0.10186837740181992,1.468255560370265e-15,0.5815629215024741
146.5,0.5733843004542429,0.5729834442147641,0.005021868520636352,0.4546878379081865,0.0158382917095049,0.09743544607643281,3.589279679113187e-15,0.5679615756941278
147.0,0.55766216547995,0.5572613092404711,0.004276720941283618,0.4397151103000804,0.02009706805773024,0.09317240994136816,8.605863105111644e-15,0.5529845882991875
147.5,0.5399488062946565,0.5395479500551776,0.002579182136184799,0.42279124745852664,0.02510290597419517,0.08907461448625079,2.024450781177908e-14,0.5369687679189928
148.0,0.5208640691441252,0.5204632129046464,0.00022014611184140165,0.40423022933406183,0.03087545864682702,0.08513737881186935,4.673982688436666e-14,0.520243066792805
148.5,0.5018857578537241,0.5014849016142453,-0.0016292089091660689,0.3843531078560985,0.03740499072356725,0.08135601194363967,1.0594313458519759e-13,0.5031141105234114
149.0,0.48489638195885854,0.4844955257193797,-0.0013578344942604126,0.3634798981190588,0.04464763439115382,0.07772582770319168,2.358307944079539e-13,0.4858533602136401
149.5,0.46789491082829093,0.4674940545888121,-0.001192653862732429,0.34192225568023443,0.05252229456016195,0.07424215821063246,5.157078678940921e-13,0.46868670845154453
150.0,0.4501944210741343,0.4497935648346555,-0.00199360515850866,0.3199771119990402,0.06090969190299927,0.07090036609001649,1.1081884296613015e-12,0.45178716999316415
150.5,0.4336786579101424,0.43327780167066354,-0.0019933211791158256,0.29792138159462445,0.06965388580279488,0.06769585545001927,2.340769689167691e-12,0.43527112284977937
151.0,0.41641464689885554,0.4160137906593767,-0.003184509979202055,0.2760077982573471,0.07856642066548138,0.06462408171088885,4.861442848697995e-12,0.41919830063857877
151.5,0.40030836501708406,0.3999075087776052,-0.003667945894477609,0.2544618861870107,0.08743300812768681,0.061680560347455136,9.930176441480075e-12,0.40357545467208283
152.0,0.38449360094770807,0.38409274470822924,-0.004270576689878625,0.23348002716610353,0.09602241959566836,0.05886087461638079,1.9955176868381715e-11,0.38836332139810786
152.5,0.36994566540408647,0.36954480916460763,-0.003941466877460775,0.2132285480644775,0.10409704560412485,0.05616068233400393,3.946211293073695e-11,0.3734862760420684
153.0,0.3571541656206563,0.3567533093811775,-0.002090543627975616,0.1938437247340366,0.11142440642924317,0.05357572176905797,7.681540475297165e-11,0.3588438530091531
153.5,0.3448063108361236,0.3444054545966448,8.226621307427795e-05,0.1754325787446844,0.11778879277931911,0.051101816712344345,1.472226004221252e-10,0.3443231883835705
154.0,0.3320767809372468,0.33167592469776797,0.0018645228728717544,0.1580743320190575,0.12300218874486481,0.048734880783084696,2.7788918438945825e-10,0.3298114018248962
154.5,0.31860701389400226,0.3182061576545234,0.002999171257690336,0.14182238046065088,0.12691368439023828,0.04647092102922951,5.167143924314604e-10,0.3152069863968331
155.0,0.3045717130801261,0.30417085684064726,0.003741449484163051,0.12670665009903812,0.12941671543423547,0.04430604087649408,9.46716525311348e-10,0.3004294073564842
155.5,0.29007406810877856,0.28967321186929973,0.004246903983992967,0.11273620690785506,0.1304536567895474,0.04223644247833545,1.7095688242909715e-09,0.28542630788530676
156.0,0.2746098367890571,0.27420898054957826,0.004031022505913362,0.09990200304204158,0.13001752344173473,0.04025842851651507,3.0433735161584884e-09,0.2701779580436649
156.5,0.25911404409385363,0.2587131878543748,0.004014351222628221,0.08817965657134252,0.12815077121877705,0.038368403499319734,5.342307257974626e-09,0.2546988366317466
157.0,0.2430324052166647,0.24263154897718583,0.0035950708379188234,0.07753217772592584,0.1249414165620842,0.03656287460196594,9.249291020916535e-09,0.239036478139267
157.5,0.22693144602135773,0.22653058978187887,0.0032626638928531515,0.06791257121853618,0.12051688678161884,0.03483845209119417,1.5797676507188098e-08,0.22326792588902572
158.0,0.21094245418210247,0.21054159794262362,0.0030473070990252316,0.05926626052802499,0.11503615431753568,0.033191849373590175,2.6624447542867414e-08,0.20749429084359838
158.5,0.19426629878668067,0.1938654425472018,0.00203142908406434,0.05153329545699257,0.10868079101539932,0.031619882704762965,4.428598261737759e-08,0.19183401346313747
159.0,0.1770989639699188,0.17669810773043995,0.0002826467003623767,0.04465031832067285,0.10164559939686504,0.030119470594155966,7.271838373854641e-08,0.17641546103007757
159.5,0.1603447299148579,0.15994387367537904,-0.0014255956921626067,0.038552276457882714,0.09412944207358757,0.02868763293800516,1.178980662039029e-07,0.16136946936754165
160.0,0.1435542229742824,0.14315336673480356,-0.0036689989487372343,0.033173879196756975,0.08632680780109689,0.027321489910759743,1.8877492718816762e-07,0.1468223656835408
160.5,0.12811642747596652,0.12771557123648766,-0.005174330535686222,0.02845080590204693,0.0784205366569815,0.02601826064317348,2.98569971954334e-07,0.13288990177217389
161.0,0.11264168188674636,0.1122408256472675,-0.007431573330438354,0.02432067832174789,0.07057599239122185,0.024775261713257942,4.665514781709706e-07,0.11967239897770586
161.5,0.099601190493582,0.09920033425410314,-0.008050938609503983,0.020723815260321174,0.06293683170102657,0.02358990547434791,7.204279114837945e-07,0.10725127286360712
162.0,0.08779523702602675,0.08739438078654789,-0.008292598498362544,0.01760379080956931,0.05562239071201214,0.022459698242696845,1.0995206321384197e-06,0.09568697928491043
162.5,0.07754531039328086,0.077144454153802,-0.007873860359875334,0.014907819175243687,0.048726598070085995,0.021382238365261052,1.6589030865988026e-06,0.08501831451367733
163.0,0.06919603768766214,0.06879518144818328,-0.0064677353253257686,0.012586989772700681,0.042318238101041954,0.020355214186674735,2.4747130916702436e-06,0.07526291677350905
163.5,0.062443764234604925,0.062042907995126066,-0.004375850101165861,0.010596375954588488,0.03644232935115537,0.01937640193284682,3.6508577012533753e-06,0.06641875809629193
164.0,0.056441132813300605,0.05604027657382175,-0.0024261072329102157,0.008895039694273877,0.031122353253297028,0.018443663527122893,5.327332038167148e-06,0.05846638380673196
164.5,0.05157876908065561,0.05117791284117675,-0.00019373682105683354,0.007445952979504463,0.026363061969267607,0.01755494435356604,7.690359895468998e-06,0.051371649662233586
165.0,0.047154895528082816,0.04675403928860396,0.0016653197920053556,0.006215854747767905,0.022153609238117388,0.016708270980590925,1.0984530122383162e-05,0.0450887194965986
165.5,0.04394604484052988,0.04354518860105102,0.003982074634502494,0.005175060068597295,0.018470777996805902,0.01590174885695969,1.5527044185638105e-05,0.039563113966548526
166.0,0.04126946047164627,0.04086860423216741,0.006133965948902274,0.004297236072847409,0.015282118116600915,0.01513355999099353,2.1724102823283837e-05,0.03473463828326514
166.5,0.038852737533785306,0.03845188129430645,0.00791182271773145,0.0035591569432484975,0.01254885166998242,0.014401960622779863,3.0089340564218637e-05,0.030540058576574998
167.0,0.03672691661764,0.03632606037816114,0.009410621891765066,0.0029404481889017805,0.010228447334256466,0.013705278898153237,4.1264065084592036e-05,0.026915438486396076
167.5,0.035214631048265645,0.034813774808786786,0.011015688424922128,0.002423328481969351,0.00827680647420802,0.013041912552293538,5.6038875393751825e-05,0.02379808638386466
168.0,0.03305851145784028,0.03265765521836142,0.01152955819162102,0.0019923555722820402,0.006650038821331333,0.012410326609922973,7.537602320405102e-05,0.0211280970267404
168.5,0.031122777927142912,0.030721921687664057,0.011872423499525993,0.0016341812341110194,0.0053058341922429895,0.011809051108279083,0.00010043165350497428,0.018849498188138063
169.0,0.03071579086760145,0.030314934628122594,0.013403902157781346,0.0013373188456634654,0.004204457951453582,0.011236678848301823,0.00013257682492237853,0.016911032470341248
169.5,0.029344619707852303,0.02894376346837345,0.013677146053879602,0.0010919260530629481,0.0033094121996591315,0.01069186317878921,0.00017341598298255818,0.015266617414493847
170.0,0.02815421350435845,0.027753357264879597,0.013877823354658638,0.0008896040166753007,0.00258781271789938,0.010173315817644914,0.00022480135800136242,0.013875533910220958
170.5,0.027482389597299765,0.02708153335782091,0.014379138507163157,0.0007232139637765518,0.002010534568941378,0.00967980471376611,0.0002888416041737127,0.012702394850657753
171.0,0.026939967895236432,0.026539111655757577,0.014822167515565659,0.0005867111598353048,0.001552178119185818,0.009210151952587124,0.00036790290858367165,0.011716944140191919
171.5,0.025770756856076747,0.02536990061659789,0.014476168913894784,0.00047499594169481016,0.001190903254628051,0.008763231707812059,0.000464600798568188,0.010893731702703108
172.0,0.02522048640936183,0.024819630169882975,0.01460792606265174,0.000383781109937275,0.0009081737750200571,0.008337968241426406,0.0005817809808474955,0.010211704107231235
172.5,0.024655026178287975,0.02425416993880912,0.01460042622900794,0.0003094747354881922,0.0006884472513537722,0.007933333953675578,0.0007224877692836367,0.009653743709801179
173.0,0.0239070517064313,0.023506195466952446,0.014300012971352954,0.00024907727902477605,0.000518838725324079,0.007548347484333779,0.0008899190069168582,0.009206182495599492
173.5,0.023274050075739496,0.02287319383626064,0.014014883245870677,0.00020009183451368638,0.00038878002859126133,0.007182071866254976,0.0010873668610300396,0.008858310590389964
174.0,0.022200463576834382,0.021799607337355528,0.013197713328620714,0.00016044627554213836,0.0002896905439328442,0.006833612731900823,0.0013181444573590092,0.008601894008734814
174.5,0.02157021780826805,0.021169361568789194,0.012738649790182225,0.00012842609223578382,0.00021467011145804836,0.006502116573271318,0.0015854990016418188,0.00843071177860697
