wavelength,absorbance,absorbance_bk,residual_3gauss,Gauss_1,Gauss_2,Gauss_3,Gauss_4,Gauss_fit
117.0,0.5788652870647557,0.5780296486912572,-0.008054544158436983,2.663441117833666e-07,1.6197054689336224e-26,0.5860839265055824,2.483684028718194e-59,0.5860841928496942
117.5,0.5720626636471311,0.5712270252736326,-0.010929561635073637,5.088143207254019e-07,1.140810845361272e-25,0.5821560780943855,4.530048629068248e-58,0.5821565869087062
118.0,0.572048608419738,0.5712129700462395,-0.006308604507693216,9.52630081381334e-07,7.643921166755429e-25,0.5775206219238513,7.806788341648035e-57,0.5775215745539327
118.5,0.5712202022723861,0.5703845638988876,-0.0018308672151503558,1.7487553239622755e-06,4.877538886919843e-24,0.572213682358714,1.272602203212981e-55,0.5722154311140379
119.0,0.5679275990883296,0.567091960714831,0.0008162142800394179,3.1489089377277467e-06,2.9669726581929396e-23,0.5662725975258539,1.964446591489048e-54,0.5662757464347916
119.5,0.5621437731209321,0.5613081347474336,0.0015669378281559787,5.564158793001073e-06,1.7222271852423209e-22,0.5597356327604845,2.874622292134333e-53,0.5597411969192776
120.0,0.5592349581509262,0.5583993197774276,0.005747960423531762,9.652171918202252e-06,9.548982315005111e-22,0.5526417071819777,3.99180685391439e-52,0.5526513593538959
120.5,0.5500963051622354,0.5492606667887369,0.004214087882041251,1.6444105775727174e-05,5.062082881670747e-21,0.5450301348009199,5.265641566083141e-51,0.5450465789066956
121.0,0.5469699506271544,0.5461343122536558,0.009166406151521422,2.7524829154633597e-05,2.5681066362958186e-20,0.5369403812729798,6.60481978228187e-50,0.5369679061021344
121.5,0.5387064040936089,0.5378707657201104,0.009413645734501763,4.5282840584841416e-05,1.2479731380633557e-19,0.5284118371450238,7.885398830108357e-49,0.5284571199856086
122.0,0.5304669049712097,0.5296312665977112,0.010074409868841339,7.324854224274128e-05,5.814246160483449e-19,0.5194836081866271,8.969226193645834e-48,0.5195568567288699
122.5,0.5187145959783679,0.5178789576048693,0.007568093510124108,0.00011654092750857924,2.5992993659123303e-18,0.5101943231672367,9.728844480763548e-47,0.5103108640947452
123.0,0.5107540040217029,0.5099183656482044,0.009153963795634157,0.00018244262592694954,1.1159993724386573e-17,0.5005819592266433,1.0072559741078277e-45,0.5007644018525702
123.5,0.4980071438252428,0.49717150545174427,0.006206699748378064,0.0002811209086200956,4.60551268087207e-17,0.49068368479474606,9.962751478350132e-45,0.4909648057033662
124.0,0.48670613716368194,0.4858704987901834,0.00490827198495275,0.00042650695926603667,1.8283182722640812e-16,0.48053571984596444,9.42235759014997e-44,0.48096222680523065
124.5,0.47453588787446493,0.4737002495009664,0.0028896995679359994,0.000637336809227607,6.987644483152274e-16,0.4701732131238021,8.528101285313965e-43,0.4708105499330304
125.0,0.4623031176858421,0.46146747931234355,0.0008989990970790229,0.000938344373562737,2.573075844136895e-15,0.4596301358416992,7.393006850295145e-42,0.46056848021526453
125.5,0.4493799755050257,0.44854433713152714,-0.0017564340300156855,0.0013615799050616026,9.135812226189624e-15,0.4489391912564721,6.143578913886766e-41,0.4503007711615428
126.0,0.43664445111032607,0.43580881273682753,-0.0042707329673391525,0.0019478062845326668,3.129948083981463e-14,0.4381317394196027,4.897801744755382e-40,0.4400795457041667
126.5,0.4253114320790499,0.4244757937055514,-0.005509844489332061,0.0027479018565457723,1.035470866695114e-13,0.42723773633823414,3.748872846296516e-39,0.42998563819488345
127.0,0.4142757738987329,0.41344013552523434,-0.006669724814917732,0.0038241736190540885,3.31022698212881e-13,0.416285686720767,2.757102689434263e-38,0.4201098603401521
127.5,0.4032117853368944,0.40237614696339585,-0.008177923210494542,0.005251460732640378,1.0232890115940476e-12,0.4053026094402267,1.9497714542074857e-37,0.4105540701738904
128.0,0.3951483118231184,0.39431267344961984,-0.007119229675372596,0.00711788830126611,3.0609365042814195e-12,0.3943140148206654,1.3268194650805886e-36,0.40143190312499244
128.5,0.38669503785862336,0.3858593994851248,-0.007009611632405988,0.009525118272091139,8.865722258217637e-12,0.38334389283657394,8.694594550551322e-36,0.3928690111175308
129.0,0.3791132356938811,0.3782775973203826,-0.0067250552105964645,0.012587941195006445,2.4880533187654226e-11,0.37241471131109205,5.490369553853933e-35,0.38500265253097904
129.5,0.3722739253355488,0.3714382869620503,-0.006542198506552965,0.01643306219629578,6.769658872881677e-11,0.36154742320461086,3.343239193970759e-34,0.37798048546860324
130.0,0.36787570510510065,0.3670400667316021,-0.004918374359897004,0.021196958813103087,1.7869202607924566e-10,0.350761482099704,1.9644433700232626e-33,0.3719584410914991
130.5,0.36428769930488175,0.3634520609313832,-0.003645532654631245,0.02702272811805245,4.5786633019047155e-10,0.34007486501009565,1.114561824607248e-32,0.36709759358601446
131.0,0.3620265601945249,0.36119092182102636,-0.0023690761866609344,0.034055895198772404,1.139529340721249e-09,0.32950410166938554,6.110007928264377e-32,0.3635599980076873
131.5,0.3610937998873384,0.3602581615138399,-0.0012453730144228459,0.042439222283628064,2.7562468312827896e-09,0.3190643094883878,3.2383728064386217e-31,0.3615035345282627
132.0,0.3614317102589242,0.36059607188542564,-0.0004798017384491371,0.052306633733797264,6.482813955808533e-09,0.30876923340726353,1.6604589447365907e-30,0.3610758736238748
132.5,0.3639435722552967,0.3631079338817982,0.000700177709607841,0.06377645142752067,1.4835548278619465e-08,0.2986312899091214,8.241548926798526e-30,0.36240775617219034
133.0,0.3672518368377398,0.3664161984642413,0.0008103395437789596,0.07694421136555166,3.305025208100524e-08,0.2886616145046586,3.962111143144358e-29,0.3656058589204623
133.5,0.3729244582798364,0.37208881990633785,0.0013432374081552845,0.09187539874150143,7.17147607372724e-08,0.2788701120419204,1.846009631070369e-28,0.37074558249818257
134.0,0.380140274400272,0.37930463602677345,0.001440486626623716,0.10859848851330209,1.5164617374429942e-07,0.2692655092406739,8.340228423915903e-28,0.37786414940014973
134.5,0.38879356413496075,0.3879579257614622,0.0010034984089229981,0.12709870580101076,3.1265485804158135e-07,0.2598554088966704,3.655953815325887e-27,0.3869544273525392
135.0,0.3995166204000993,0.39868098202660074,0.0007210871067562241,0.14731292085270298,6.28820528129367e-07,0.25064634524661344,1.555748413551165e-26,0.3979598949198445
135.5,0.4114130571234072,0.41057741874990866,-0.00019372014854696085,0.16912606454696444,1.2343218951608927e-06,0.24164384002959605,6.430226011608675e-26,0.4107711388984556
136.0,0.4252517213006457,0.42441608292714716,-0.0008081342221233356,0.19236939252344284,2.365801185674397e-06,0.232852458824642,2.582788706634945e-25,0.4252242171492705
136.5,0.44035402453359423,0.4395183861600957,-0.0015827525365976203,0.21682084165559326,4.429754575468964e-06,0.2242758672865246,1.0086726257463245e-24,0.4411011386966933
137.0,0.45726298624217193,0.4564273478686734,-0.0017052622299982834,0.24220761668281268,8.106472889348602e-06,0.21591688694296962,3.8320285805267815e-24,0.4581326100986717
137.5,0.4758478065007024,0.47501216812720387,-0.0009909119163598046,0.2682110243744598,1.4505413664070502e-05,0.2077775502554398,1.4168974547214396e-23,0.4760030800435637
138.0,0.49506098082076583,0.4942253424472673,-0.00013264835932796926,0.29447344597730346,2.5390146465059918e-05,0.19985915468282672,5.101395546772887e-23,0.49435799080659526
138.5,0.5153612715279802,0.5145256331544816,0.0017126092083362687,0.3206072149389084,4.349348484999482e-05,0.19216231552238694,1.7893116598454179e-22,0.5128130239461454
139.0,0.5346760216074269,0.5338403832339284,0.002875366876945895,0.3462050549100709,7.294411179807793e-05,0.18468701733511347,6.116891933225282e-22,0.5309650163569825
139.5,0.5529629520572545,0.552127313683756,0.003723185404355678,0.3708516408112516,0.00011982367478967063,0.17743266379335906,2.0390169688187012e-21,0.5484041282794003
140.0,0.5693080742369376,0.5684724358634391,0.0037456637342604404,0.3941357797201337,0.0001928665921349797,0.17039812581690997,6.630550070935004e-21,0.5647267721291787
140.5,0.5833773569953232,0.5825417186218247,0.0029929555229204485,0.41566267282523695,0.00030430238376118044,0.16358178788990618,2.1042948977117037e-20,0.5795487630989042
141.0,0.5942604463344068,0.5934248079609082,0.0009066775232667856,0.43506571662407456,0.0004708213385951479,0.15698159247497168,6.520454374438408e-20,0.5925181304376415
141.5,0.6023524890789865,0.601516850705488,-0.0018101808173236478,0.45201733038454267,0.0007146186754805348,0.15059508246278835,1.973538317715827e-19,0.6033270315228116
142.0,0.6088025970014865,0.607966958627988,-0.003755278914995608,0.4662383547777864,0.001064441150049857,0.14441944161514741,5.836982083591627e-19,0.6117222375429836
142.5,0.6138031273454023,0.6129674889719038,-0.004546218601079066,0.4775056486985719,0.0015565258971127153,0.13845153297729826,1.6876461931055898e-18,0.6175137075729829
143.0,0.6169180681724643,0.6160824297989658,-0.00449840511533417,0.4856576113038224,0.002235288359106105,0.13268793525137146,4.771955951768831e-18,0.6205808349142999
143.5,0.6183470847634355,0.6175114463899369,-0.003364587784097539,0.490597467015961,0.003153590021347296,0.1271249771367262,1.3200847522120344e-17,0.6208760341740345
144.0,0.6173289858917465,0.6164933475182479,-0.0019320911062867818,0.4922942651695484,0.00437240379944362,0.12175876965554268,3.574066991925319e-17,0.6184254386245347
144.5,0.6138474716689224,0.6130118332954239,-0.00031476085975779,0.49078165595113876,0.00595970171126497,0.11658523649277783,9.474165573131071e-17,0.6133265941551816
145.0,0.6081514030849601,0.6073157647114615,0.0015725972684941247,0.4861546039345502,0.007988421119436498,0.11160014238898051,2.459775414643151e-16,0.6057431674429674
145.5,0.6000406123424773,0.5992049739689788,0.0033081445512364027,0.4785642847018949,0.010533425083422426,0.10679911963242442,6.257226657576091e-16,0.5958968294177424
146.0,0.5897875362335452,0.5889518978600466,0.0048952717218624375,0.46821147509125477,0.013667458343204203,0.10217769270372364,1.5601020655959872e-15,0.5840566261381842
146.5,0.5765960730453141,0.5757604346718156,0.005234134139346813,0.4553387914383487,0.01745620796247883,0.09773130113163751,3.813806528322675e-15,0.5705263005324688
147.0,0.5607106000464926,0.5598749616729941,0.004244791747447851,0.440222152261151,0.021952697041153237,0.09345532062323289,9.144201574237659e-15,0.5556301699255463
147.5,0.5431594246244896,0.5423237862509911,0.0026255028843443773,0.4231618430799157,0.027191357751628852,0.08934508253508061,2.1510899945896275e-14,0.5396982833666467
148.0,0.5237387786254817,0.5229031402519831,-0.00014852562272149594,0.4044735435750533,0.03318223054481407,0.0853958917547877,4.966362970865275e-14,0.5230516658747046
148.5,0.5051074585855996,0.504271820212101,-0.0017166707210829468,0.3844796440750376,0.03990580379403844,0.08160304306399531,1.1257039139725753e-13,0.505988490933184
149.0,0.48797110065245103,0.4871354622789525,-0.0016365355454854291,0.3635011330402188,0.047309028728846556,0.077961836055122,2.5058315419844843e-13,0.4887719978244379
149.5,0.47070577014242393,0.4698701317689254,-0.0017507497714496223,0.34185028364376574,0.05530300922143599,0.07446758867462532,5.479678958224292e-13,0.471620881540375
150.0,0.4530047401353811,0.4521691017618826,-0.0025336296346648024,0.31982430960863223,0.06376277232120453,0.07111564946553313,1.1775109898090077e-12,0.4547027313965474
150.5,0.4364785527043895,0.435642914330891,-0.002487974422650474,0.29770010173459466,0.07252937843500057,0.06790140858145906,2.4871961841806817e-12,0.43813088875354145
151.0,0.41952050986236966,0.4186848714888711,-0.003279978568104691,0.2757301001819252,0.08141444222649231,0.06482030764339278,5.165549673190381e-12,0.4219648500569758
151.5,0.40325345396902895,0.4024178155955304,-0.003796264396718041,0.254139306121582,0.09020692535085828,0.06186784850925687,1.0551357131710012e-11,0.40621407999224846
152.0,0.38686662035130426,0.3860309819778057,-0.0048138634294752625,0.23312339171504723,0.09868185264640936,0.0590396010246209,2.1203469948954033e-11,0.390844845407281
152.5,0.3724478175070087,0.3716121791335102,-0.004177279418164814,0.21284783078119174,0.10661041790742816,0.05633120982112445,4.193065945583709e-11,0.375789458551675
153.0,0.35983571432741446,0.3590000759539159,-0.0019570740549551546,0.19344794453891165,0.11377080516124914,0.05373840022708967,8.162058081665404e-11,0.3609571500088711
153.5,0.3472692754686928,0.34643363709519426,0.00018794342408240405,0.17502973751457437,0.1199589726475175,0.05125698335258786,1.5643208799634912e-10,0.34624569367111185
154.0,0.3346216094833491,0.3337859711098506,0.0022330844010694517,0.15767138763292296,0.12499863837171829,0.048882860408867405,2.952725004245507e-10,0.33155288670878114
154.5,0.3209402926961081,0.32010465432260954,0.003317607821581081,0.14142525086653554,0.12874976876586103,0.046612026319594525,5.490373833504894e-10,0.31678704650102846
155.0,0.30688637974131566,0.3060507413678171,0.004174926131670698,0.1263202435475095,0.131114998003855,0.04444057267884364,1.0059382348258407e-09,0.3018758152361464
155.5,0.2923709153771115,0.291535277003613,0.004762531456883989,0.11236447334468717,0.13204358027732108,0.042364690108210104,1.8165106443610252e-09,0.286772745546729
156.0,0.2770688321989542,0.27623319382545564,0.004771837421286729,0.09954800172854479,0.13153268137903304,0.04038067006283981,3.233751287644799e-09,0.2714613564041689
156.5,0.26111897438423953,0.260283336010741,0.004326761336758855,0.08784563526043433,0.12962602760346104,0.03848490613359226,5.676494483094511e-09,0.25595657467398214
157.0,0.2451721586287486,0.24433652025525007,0.004032828273369982,0.07721965912089275,0.12641012814311156,0.03667389488999672,9.827879026312956e-09,0.2403036919818801
157.5,0.229249398730498,0.22841376035699945,0.0038386106013078014,0.06762244293621143,0.12200845372744673,0.0349442363061357,1.678589777944796e-08,0.22457514975569165
158.0,0.2128707676206758,0.21203512924717727,0.0031695258429156326,0.05899886533920958,0.11657407596600323,0.033292633809112994,2.8289935845027335e-08,0.20886560340426163
158.5,0.19628104309388897,0.19544540472039043,0.002159603151179107,0.05128851914981198,0.1102813413757651,0.03171589398734864,4.705628558348212e-08,0.19328580156921132
159.0,0.17886784771196806,0.17803220933846953,7.636281454820315e-05,0.04442767309845179,0.10331717016461546,0.03021092599358279,7.726727127033561e-08,0.17795584652392132
159.5,0.16224918528991195,0.1614135469164134,-0.0015848341739158611,0.03835097831941595,0.09587253682255024,0.028774740675201114,1.2527316196105336e-07,0.16299838109032927
160.0,0.14539047758903215,0.1445548392155336,-0.00397734520296486,0.03299291823694138,0.08813461613555332,0.027404449462289454,2.0058371429883996e-07,0.14853218441849847
160.5,0.12962583510556897,0.12879019673207043,-0.00587636839349806,0.028289008903681,0.08027997593320473,0.026097263041711238,3.172469715377253e-07,0.1346665651255685
161.0,0.11477617160556884,0.1139405332320703,-0.007556295200558144,0.024176763378802233,0.07246907947381208,0.024850489843478575,4.957365355509626e-07,0.12149682843262845
161.5,0.10110476158597376,0.10026912321247522,-0.008831853430232739,0.02059643847720349,0.06484223830759259,0.023661534363741007,7.654941708754265e-07,0.10910097664270796
162.0,0.08958718705606172,0.08875154868256319,-0.008786141949662013,0.01749158536126591,0.05751704162310196,0.022527895346877824,1.1683009795188333e-06,0.0975376906322252
162.5,0.0790360777261531,0.07820043935265457,-0.008645103296552742,0.014809427193662112,0.05058718893261106,0.02144716384741505,1.7626755190858556e-06,0.08684554264920731
163.0,0.07086851006601659,0.07003287169251805,-0.007010441747984805,0.012501087650782849,0.0441225750804964,0.020417021190827566,2.6295183960335626e-06,0.07704331344050286
163.5,0.06353737423801825,0.06270173586451971,-0.0054294966059098,0.010521693738620172,0.03817042264454558,0.019435236850709404,3.879236554354381e-06,0.06813123247042951
164.0,0.05775540993464976,0.056919771561151224,-0.00317315744223106,0.008830375273613937,0.03275722688897278,0.0184996662583049,5.66058249066963e-06,0.060092929003382284
164.5,0.05276399477704114,0.051928356403542604,-0.0009695158096225745,0.007390181789076387,0.02789127043589173,0.017608248558997723,8.171429199336477e-06,0.05289787221316518
165.0,0.04870566235542097,0.04787002398192243,0.0013659371465592623,0.006167935679173855,0.02356547516140811,0.016759004329033027,1.1671665748168325e-05,0.04650408683536317
165.5,0.04538088565882043,0.044545247285321894,0.003684294383732238,0.005134038247147439,0.019760383053831026,0.015950033264517372,1.6498336093823755e-05,0.040860952901589656
166.0,0.042657665383419086,0.04182202700992055,0.00591009779897269,0.0042622431059372735,0.016447091200626866,0.01517951185358344,2.3083050800282945e-05,0.03591192921094786
166.5,0.040592381712269705,0.03975674333877117,0.008159667297206082,0.003529409185341847,0.013590004239967155,0.014445691041529115,3.1971574726964204e-05,0.031597076041565086
167.0,0.03856116879816111,0.037725530424662576,0.009870241034953497,0.0029152435040246728,0.011149306655493926,0.013746893897735465,4.384533245501546e-05,0.02785528938970908
167.5,0.03655425587767879,0.035718617504180254,0.011092423766552489,0.0024020419194107664,0.009083094147189876,0.013081513292231495,5.9544378795624083e-05,0.024626193737627766
168.0,0.034792568648578104,0.033956930275079567,0.01210525941654253,0.0019744343076814855,0.007349135802975673,0.012448009588907938,8.009115897194089e-05,0.021851670858537037
168.5,0.03336975669592116,0.032534118322422624,0.013057091136197622,0.001619139068161395,0.005906265616038431,0.011844908361576206,0.00010671414044896812,0.019477027186225
169.0,0.03237760946334756,0.031541971089849026,0.014090149806867125,0.001324730497539226,0.004715422498897284,0.011270798138327189,0.00014087014821820325,0.0174518212829819
169.5,0.031492369724542134,0.030656731351043597,0.014926345329048286,0.0010814214361688232,0.003740372413213918,0.010724328178958619,0.0001842639936539529,0.01573038602199531
170.0,0.030760142455073403,0.029924504081574866,0.01565241628367021,0.0008808626407628219,0.002948155094474489,0.010204206289607111,0.0002388637730602332,0.014272087797904655
170.5,0.02990999511872249,0.02907435674522395,0.016032988526686193,0.000715959569937931,0.0023093019232788893,0.009709196678143708,0.00030691004717722954,0.013041368218537757
171.0,0.028895132421736785,0.028059494048238248,0.016051880767081736,0.0005807066631619444,0.0017978717450712594,0.009238117853357986,0.00039091701956532344,0.012007613281156512
171.5,0.027910043457388487,0.02707440508388995,0.015929513092916278,0.00047003873011630134,0.0013913488589064667,0.00878984057047119,0.0004936638314797111,0.01114489199097367
172.0,0.02730903846358578,0.026473400090087244,0.01604179842327233,0.0003796987264610836,0.001070442912883247,0.00836328582507509,0.0006181742023954937,0.010431601666814914
172.5,0.02672914831077265,0.02589350993727411,0.016043458333154844,0.00030612095420268616,0.0008188248699577637,0.007957422897189422,0.0007676828827693951,0.009850051604119267
173.0,0.024908811528194477,0.02407317315469594,0.014687162175038336,0.0002463285722468324,0.000622827204414471,0.00757126744676536,0.0009455877562309399,0.009386010979657603
173.5,0.024596719799814492,0.023761081426315955,0.014732840055092835,0.00019784421879919358,0.0004711305597028931,0.007203879661629969,0.001155386931091063,0.00902824137122312
174.0,0.023771917617821832,0.022936279244323295,0.01416824988791271,0.0001586125174009707,0.0003544535952747669,0.0068543624585683345,0.001400600785166513,0.008768029356410585
174.5,0.02284294949750538,0.02200731112400684,0.013408580590484644,0.00012693324980948755,0.0002652578930813069,0.006521859737970663,0.0016846796526607392,0.008598730533522198
