wavelength,absorbance,absorbance_bk,residual_3gauss,Gauss_1,Gauss_2,Gauss_3,Gauss_4,Gauss_fit
117.0,0.3174547918008952,0.32516951786589604,-0.0074714242910863815,3.1644352290335075e-07,4.7477518712632756e-48,0.33264062571345954,1.973070790323449e-121,0.3326409421569824
117.5,0.3164308196777276,0.32414554574272847,-0.005908857710145821,5.861866432727131e-07,1.7657870496057094e-46,0.330053817266231,7.575766087514739e-119,0.3300544034528743
118.0,0.3171914337421437,0.32490615980714455,-0.002147406481633918,1.0652284702538906e-06,5.98712852142752e-45,0.3270525010603082,2.592019341572395e-116,0.32705356628877846
118.5,0.3133667648517284,0.3210814909167292,-0.0025799139297632,1.899759673189782e-06,1.8542822290132545e-43,0.32365950508681923,7.920755958833309e-114,0.3236614048464924
119.0,0.311459060178682,0.31917378624368287,-0.0007278807850722435,3.326451479025655e-06,5.255780895832099e-42,0.31989834057727606,2.166596812026308e-111,0.3199016670287551
119.5,0.30965421067170606,0.3173689367367069,0.0015701967578065634,5.720891462597954e-06,1.3658739394637938e-40,0.31579301908743773,5.316392417875793e-109,0.31579873997890034
120.0,0.3059223427804485,0.31363706884544934,0.0022595226323024464,9.667528535726559e-06,3.2605050495353846e-39,0.3113678786846112,1.1727526538687284e-106,0.3113775462131469
120.5,0.30058690285665723,0.3083016289216581,0.001638150416377937,1.6058379343729498e-05,7.161939022754383e-38,0.30664742012593643,2.3304965000413624e-104,0.30666347850528014
121.0,0.2985739037984415,0.30628862986344235,0.004606247016955334,2.6229126524595823e-05,1.4501087607748403e-36,0.3016561537199624,4.180469009133669e-102,0.301682382846487
121.5,0.2937806418442228,0.30149536790922365,0.005034768116694843,4.214241236688665e-05,2.7110035874367484e-35,0.2964184573801619,6.782631341723172e-100,0.2964605997925288
122.0,0.2892751751357652,0.296989901200766,0.005964826144173319,6.662884829331256e-05,4.6874600612041785e-34,0.29095844620829936,9.972658549058135e-98,0.2910250750565927
122.5,0.28231572166759134,0.2900304477325922,0.004626897733677748,0.00010369621012315322,7.508012186824695e-33,0.2852998537887913,1.3313350097061497e-95,0.28540354999891443
123.0,0.27571888950976514,0.283433615574766,0.003808774223642508,0.0001589161181775364,1.115778867836706e-31,0.27946592523294594,1.6167143264620074e-93,0.2796248413511235
123.5,0.2699026619738112,0.27761738803881203,0.0038981713064825674,0.00023989484772101238,1.5408746421808548e-30,0.27347932188460844,1.7891090718760922e-91,0.27371921673232946
124.0,0.2629847463296028,0.2706994723946036,0.0029806044535587994,0.00035683045475828386,1.9803753278128613e-29,0.26736203748628656,1.8074598807549577e-89,0.2677188679410448
124.5,0.2545621024280676,0.26227682849306844,0.0006183510778611234,0.0005231519081801786,2.3722415215800904e-28,0.2611353255070271,1.6698699452461e-87,0.2616584774152073
125.0,0.24810376011914984,0.25581848618415065,0.0002426216051663599,0.0007562273291221867,2.6523279269773445e-27,0.2548196372498621,1.413240594681197e-85,0.2555758645789843
125.5,0.2402485874190364,0.24796331348403725,-0.0015493747217622533,0.0010781179189745056,2.7718140562598014e-26,0.248434570286825,1.0974640754347203e-83,0.2495126882057995
126.0,0.2339669083138305,0.24168163437883133,-0.0018335344923222086,0.0015163421584081108,2.7112367811650633e-25,0.24199882671274542,7.832689281090587e-82,0.24351516887115354
126.5,0.22808528558137617,0.235800011646377,-0.0018347711615506745,0.0021046021435228808,2.485546157004031e-24,0.23553018066440481,5.145981495484408e-80,0.23763478280792769
127.0,0.22053600032544035,0.2282507263904412,-0.003678139690362403,0.0028834115625406952,2.1384483594367804e-23,0.22904545451826291,3.117006826473518e-78,0.2319288660808036
127.5,0.21553398065780377,0.2232487067228046,-0.00321235057317118,0.0039005541390128677,1.7288490317645579e-22,0.22256050315696294,1.7433334417298102e-76,0.2264610572959758
128.0,0.2105982775021,0.21831300356710084,-0.0029884959880167594,0.005211293873972268,1.3150527820784449e-21,0.21609020568114534,9.01660725037204e-75,0.2213014995551176
128.5,0.2058857996185879,0.21360052568358875,-0.0029261938921670283,0.00687825563789549,9.423049648986327e-21,0.2096484639378603,4.318757652293964e-73,0.21652671957575578
129.0,0.2020313726695164,0.20974609873451724,-0.002473006484200624,0.008970897979723343,6.368315380637513e-20,0.20324820723899453,1.9184348122995975e-71,0.21221910521871787
129.5,0.19895202402693848,0.20666675009193933,-0.0017991630496514144,0.011564510489799862,4.063998800688347e-19,0.19690140265179087,7.914330774491741e-70,0.20846591314159074
130.0,0.19661525900560936,0.2043299850706102,-0.0010277714048550768,0.014738686217734453,2.451762815762251e-18,0.19061907025773084,3.0363643283918476e-68,0.20535775647546528
130.5,0.19490591461604664,0.2026206406810475,-0.0003659074930268402,0.01857524537910776,1.3998717668875955e-17,0.18441130279496656,1.0847937872996278e-66,0.20298654817407433
131.0,0.1941533400608594,0.20186806612586025,0.00042515800785430935,0.02315561899569879,7.572885272177292e-17,0.17828728912230707,3.6137908860967766e-65,0.20144290811800594
131.5,0.1935109444999178,0.20122567056491864,0.00041259107272928475,0.02855773852349161,3.885669438767192e-16,0.17225534096869735,1.1239794201448816e-63,0.20081307949218935
132.0,0.19405255862264384,0.20176728468764468,0.0005918446983390335,0.034852517528765704,1.89303910655725e-15,0.16632292246053806,3.267973968254796e-62,0.20117543998930565
132.5,0.19620483101613703,0.20391955708113788,0.001322824027511632,0.04210005110424159,8.765780989538055e-15,0.16049668194937589,8.893193529177187e-61,0.20259673305362624
133.0,0.19860396841641367,0.20631869448141452,0.0011905141171097977,0.05034569467033336,3.8618672917369675e-14,0.15478248569393274,2.2678733427293136e-59,0.20512818036430472
133.5,0.2022965311626398,0.21001125722764064,0.0012095915062340645,0.059616212738646146,1.6203498099740145e-13,0.1491854529825984,5.425926629732541e-58,0.20880166572140657
134.0,0.2069151141304684,0.21462984019546924,0.0010036408094866445,0.06991620707040694,6.481040922046415e-13,0.14370999231492756,1.2193397432168152e-56,0.2136261993859826
134.5,0.21234666093261803,0.22006138699761887,0.00047650870983784177,0.08122503999231576,2.473524285906363e-12,0.13835983829299175,2.5766923156958296e-55,0.21958487828778103
135.0,0.2191517788283207,0.22686650489332155,0.00023395510805945818,0.09349446087098727,9.016234227803224e-12,0.13313808890525858,5.1258830218914647e-54,0.2266325497852621
135.5,0.2262621625720848,0.23397688863708566,-0.0007174757259375553,0.10664712141483254,3.141705113834704e-11,0.12804724291677363,9.609804982850975e-53,0.2346943643630232
136.0,0.23494116950042168,0.24265589556542252,-0.0010094709249662548,0.12057612927614221,1.0474232164846654e-10,0.12308923710950426,1.6996601244756922e-51,0.24366536649038878
136.5,0.2442526539031316,0.25196737996813245,-0.0014438447587099001,0.13514574124681958,3.3440496233231724e-10,0.11826548314561781,2.838989165891132e-50,0.25341122472684235
137.0,0.2548399089579545,0.26255463502295534,-0.0012155099581498408,0.1501932401037981,1.023260575025691e-09,0.11357690385404652,4.482939620302714e-49,0.2637701449811052
137.5,0.26615988744487507,0.2738746135098759,-0.0006813348623782578,0.16553197660197624,3.0034770097760505e-09,0.10902396876680093,6.698753283220488e-48,0.27455594837225417
138.0,0.2778248434236073,0.28553956948860815,-2.2662201897616363e-05,0.1809554944711039,8.46332269360881e-09,0.10460672875607921,9.48162389861763e-47,0.28556223169050576
138.5,0.2899142978497116,0.29762902391471246,0.0010615554278624595,0.1962425959276174,2.291303424214044e-08,0.10032484964619835,1.272466328240335e-45,0.29656746848685
139.0,0.30169719019968044,0.3094119162646813,0.0020710596076736754,0.2111631523142393,5.964702911104899e-08,0.09617764469573918,1.6206661560552808e-44,0.3073408566570076
139.5,0.31249372722550905,0.3202084532905099,0.0025597754010013296,0.22548442261027035,1.4941420807349652e-07,0.09216410586503018,1.9607635980730378e-43,0.31764867788950857
140.0,0.32238457026366,0.33009929632866086,0.002838387658162689,0.2389776144412833,3.60427011105304e-07,0.08828293380220377,2.2554545716127813e-42,0.3272609086704982
140.5,0.3303089863170705,0.33802371238207135,0.0020658984673392333,0.25142440953314293,8.378839881081324e-07,0.0845325664976011,2.468909128271323e-41,0.3359578139147321
141.0,0.33660646270806516,0.344321188773066,0.0007849249087191201,0.2626231788250869,1.8784679876795499e-06,0.08091120657127233,2.5740424306615615e-40,0.3435362638643469
141.5,0.3412100992297109,0.34892482529471175,-0.0008907172053461143,0.2723946310552888,4.064272946768994e-06,0.07741684717182226,2.5582079970633625e-39,0.34981554250005786
142.0,0.3451200742071002,0.35283480027210107,-0.0018076593026984944,0.28058667088928346,8.492208598054204e-06,0.07404729647691807,2.425650812246384e-38,0.35464245957479956
142.5,0.3478259145915423,0.3555406406565431,-0.0023549940694936877,0.2870782860428971,1.7147886667508502e-05,0.07080020079647223,2.196082350217331e-37,0.3578956347260368
143.0,0.3491201642262776,0.35683489029127846,-0.002653994419671124,0.29178233420154176,3.348422045053016e-05,0.06767306628895732,1.89996486786084e-36,0.3594888847109496
143.5,0.34942663006666813,0.357141356131669,-0.0022323485456973158,0.29464715635566874,6.326901219628996e-05,0.06466327930950129,1.5720307909619845e-35,0.3593737046773663
144.0,0.3482620761570121,0.35597680222201294,-0.0015640779148378692,0.29565699989110034,0.00011575483022498181,0.061768125415525524,1.244888189094053e-34,0.3575408801368508
144.5,0.3449629183959439,0.35267764446094474,-0.001343640947329583,0.29483128902406047,0.00020518932250230228,0.05898480706171156,9.442397451299135e-34,0.3540212854082743
145.0,0.34085808029246084,0.3485728063574617,-0.00031309936552659234,0.2922228290055736,0.0003526166962436878,0.05631046002117094,6.864980579734478e-33,0.3488859057229883
145.5,0.3346858572641318,0.34240058332913265,0.00015552493990600436,0.2879150715804162,0.0005878182349345481,0.05374216857387595,4.787598598428488e-32,0.34224505838922664
146.0,0.327497078467352,0.33521180453235283,0.0009651165353414815,0.28201860081104807,0.0009511076791771833,0.05127697950678611,3.2049978775415262e-31,0.33424668799701135
146.5,0.3181364678382808,0.32585119390328166,0.0007777037059462089,0.27466701964664625,0.001494555577938343,0.04891191497275089,2.0609793699140455e-30,0.32507349019733545
147.0,0.30798461473887284,0.3156993408038737,0.000760828995313878,0.26601242833534283,0.002282099215978296,0.04664398425723868,1.2739544890461522e-29,0.3149385118085598
147.5,0.29678104447600245,0.3044957705410033,0.0004169434413484052,0.25622068640452816,0.003387946191797719,0.044470194503329,7.574629022332196e-29,0.3040788270996549
148.0,0.2849192322779318,0.29263395834293265,-0.00011299016703486542,0.24546664147999986,0.00489274658371752,0.04238756044625012,4.3349418077225735e-28,0.2927469485099675
148.5,0.2732286613830472,0.28094338744804803,-0.00025644286600468025,0.23392949210783828,0.0068772249970957015,0.040393113209118724,2.3894693394721503e-27,0.2811998303140527
149.0,0.26273502095135326,0.2704497470163541,0.0007640734214527933,0.22178842968462897,0.009413335698763113,0.038483908211509224,1.269382369696938e-26,0.2696856735949013
149.5,0.2521238597562462,0.259838585821247,0.0014093780033274106,0.20921867842315162,0.012553497152694331,0.03665703224207369,6.503207289418205e-26,0.2584292078179196
150.0,0.2414139026649612,0.24912862872996205,0.001511996958693751,0.19638802381097012,0.016318998214562865,0.03490960974573532,3.2149417397204008e-25,0.2476166317712683
150.5,0.23158157117838793,0.23929629724338877,0.001914463976295272,0.1834538909720373,0.02068913392006154,0.033238808374994655,1.534582542956785e-24,0.2373818332670935
151.0,0.22155985057228303,0.22927457663728387,0.0014788276515134424,0.17056100622713458,0.025592898904939595,0.03164184385369627,7.076775633826863e-24,0.22779574898577043
151.5,0.2119692867378484,0.21968401280284924,0.0008233441969685285,0.15783964921356194,0.030905035192102092,0.030115984200216682,3.1547158630358536e-23,0.21886066860588071
152.0,0.20288461942509445,0.2105993454900953,8.84673942335712e-05,0.14540448011543056,0.036447844624935784,0.028658553355495386,1.3602278986828229e-22,0.21051087809586172
152.5,0.1941770786030552,0.20189180466805604,-0.000728493513013545,0.13335390751272552,0.041999456408662546,0.02726693425968153,5.675865562462542e-22,0.20262029818106958
153.0,0.1865287512228354,0.19424347728783625,-0.0007733316012519253,0.121769947423177,0.04730829004649985,0.025938571419411346,2.2932924029417056e-21,0.19501680888908818
153.5,0.1786935218434423,0.18640824790844315,-0.0010936800015884651,0.11071851336198335,0.05211244154212682,0.02467097300592143,8.9769170634414e-21,0.18750192791003162
154.0,0.1712442267729226,0.17895895283792343,-0.0009146741974869199,0.10025007052904518,0.056161843984024976,0.023461712522340184,3.4061572520490644e-20,0.17987362703541035
154.5,0.1629965747155448,0.17071130078054564,-0.0012382078888406312,0.09040058422026012,0.05924049437251567,0.022308430076610496,1.2534209012749887e-19,0.17194950866938627
155.0,0.1549177402852693,0.16263246635027015,-0.0009549783715448457,0.08119269278695491,0.061185918640254994,0.021208833294605062,4.47553414409516e-19,0.163587444721815
155.5,0.1458563125390498,0.15357103860405064,-0.0011300959666747656,0.07263703839200014,0.06190339827262055,0.020160697906104735,1.5514059203316663e-18,0.1547011345707254
156.0,0.1363847657628722,0.14409949182787304,-0.001169309480120173,0.06473369385141511,0.061373239422135496,0.019161868034442607,5.223380034190138e-18,0.14526880130799322
156.5,0.12704572784197624,0.13476045390697708,-0.0005738153967587145,0.057473630425542405,0.05965038265941663,0.018210256218776713,1.708962526487543e-17,0.1353342693037358
157.0,0.11739142202490276,0.12510614808990358,0.00010538938835397138,0.05084017898463695,0.05685673652075593,0.017303843196156687,5.435925982826633e-17,0.1250007587015496
157.5,0.10773716109885476,0.1154518871638556,0.0010331876256492456,0.044810445024511925,0.05316757704489743,0.01644067746879684,1.6818073741896105e-16,0.11441869953820635
158.0,0.09786414459402373,0.10557887065902458,0.0018093158255370057,0.03935664612270964,0.048794034030507145,0.015618874680270282,5.063358880258188e-16,0.10376955483348757
158.5,0.08779969334074049,0.09551441940574133,0.0022664585575866425,0.03444734825617677,0.04396399576927522,0.014836616822701215,1.484073375890645e-15,0.09324796084815469
159.0,0.07740891887954439,0.08512364494454523,0.0020792109207640186,0.030048584679198857,0.03890369804912572,0.01409215129545241,4.2365977296414815e-15,0.08304443402378121
159.5,0.06797597043879804,0.07569069650379888,0.002360178874821109,0.02612484759446286,0.03382188020020618,0.01338378983429695,1.1784518786226126e-14,0.07333051762897777
160.0,0.05809111669688936,0.0658058427618902,0.0015581885797091855,0.022639948520561733,0.028897798332969966,0.012709907328617345,3.195387140910567e-14,0.06424765418218101
160.5,0.04923632234049487,0.056951048405495704,0.0010506495109027236,0.019557748008498403,0.024273710343210585,0.012068940542799497,8.449540355634555e-14,0.05590039889459298
161.0,0.04032873975903893,0.04804346582403977,-0.0003104873624964477,0.016842759182306696,0.020051807247326223,0.011459386756685319,2.1798088726469804e-13,0.048353953186536215
161.5,0.03275241573424699,0.040467141799247826,-0.001168343925180955,0.014460632510629304,0.016295050874544355,0.010879802338706272,5.488505382486619e-13,0.04163548572442878
162.0,0.026379937130547954,0.03409466319554879,-0.0016437090219993955,0.012378531323789164,0.013031039628253614,0.0103288012641561,1.3493097476833006e-12,0.035738372217548185
162.5,0.02057494991327098,0.028289675978271818,-0.0023386595270550696,0.010565408962228788,0.010257872949902084,0.009805053589955908,3.240109045168836e-12,0.030628335505326888
163.0,0.01606716074498313,0.02378188680998397,-0.00246859606524881,0.008992199177370847,0.007950999794027585,0.009307283896231724,7.602624902540669e-12,0.02625048287523278
163.5,0.012055046054604144,0.019769772119604984,-0.002766603728857512,0.007631931610072779,0.0060701745168981955,0.008834269704053946,1.7437576840073447e-11,0.022536375848462496
164.0,0.008669375386521346,0.016384101451522186,-0.0030263768795380924,0.006459783949177598,0.004565854464994802,0.008384839877777939,3.9109941085210543e-11,0.019410478331060278
164.5,0.005786109148808774,0.013500835213809612,-0.0032947287348869154,0.00545308182208557,0.0033846090212234295,0.007957873019580336,8.580719091453755e-11,0.016795563948696527
165.0,0.004078135603411348,0.011792861668412187,-0.0028240225019558283,0.004591256681032339,0.0024733314421168605,0.007552295862993203,1.8422561362746105e-10,0.014616884170368015
165.5,0.0018137383605112865,0.009528464425512126,-0.0032766158151332127,0.0038557710025580744,0.0017822271793965262,0.007167081671506405,3.871843328538048e-10,0.012805080240645339
166.0,0.0006811625697951962,0.008395888634796036,-0.0029020633663860845,0.0032300190814790854,0.0012666834752270365,0.006801248647627084,7.968489131627072e-10,0.01129795200118212
166.5,3.450961303889207e-05,0.007749235678039731,-0.0022920387738317857,0.002699210630666669,0.0008882038575845435,0.006453858357156019,1.6064642863053988e-09,0.010041274451871517
167.0,-0.0010718516545947213,0.006642874410406117,-0.002346010692020454,0.0022502433387084,0.0006146244172964757,0.006124014172859889,3.1735618061847903e-09,0.008988885102426571
167.5,-0.0018487999869426068,0.005865926078058232,-0.0022363365532624187,0.001871569523003111,0.0004198272218071753,0.00581085974118216,6.145328204492406e-09,0.008102262631320651
168.0,-0.002437917108133064,0.005276808956867775,-0.0020729830703868756,0.0015530610703893874,0.0002831418135048152,0.005513577475144584,1.1668215863651996e-08,0.007349792027254651
168.5,-0.003117743407315444,0.004596982657685395,-0.0021088914516603904,0.0012858759970896642,0.000188589306017293,0.005231387076139264,2.17300995639984e-08,0.006705874109345786
169.0,-0.003865768733516983,0.0038489573314838556,-0.0023010393776190497,0.0010623291936923266,0.00012408372296549157,0.004963544086899261,3.97055458263243e-08,0.006149996709102905
169.5,-0.004106655975612048,0.003608070089388791,-0.002057776683324992,0.0008757692525690048,8.066783851245112e-05,0.00470933847755952,7.120407280722558e-08,0.005665846772713783
170.0,-0.004374426357582608,0.0033402997074182305,-0.0019002108984206298,0.0007204627036164685,5.1829277721818315e-05,0.004468093266376308,1.253581242648552e-07,0.00524051060583886
170.5,-0.004350584458085765,0.003364141606915074,-0.0014996431872960712,0.0005914865053261738,3.291838119271778e-05,0.004239163176363943,2.16731328310688e-07,0.004863784794211145
171.0,-0.004991286927931464,0.002723439137069375,-0.0018041637757940342,0.0004846292454153647,2.0672262307366543e-05,0.004021933328824865,3.680763158130015e-07,0.004527602912863409
171.5,-0.005325225545778572,0.002389500519222267,-0.00183607152506192,0.0003963011906314971,1.283865863179157e-05,0.0038158179744962706,6.142205246275864e-07,0.004225572044284187
172.0,-0.005371763519623932,0.0023429625453769065,-0.0016096444837226907,0.0003234530800948778,7.887285452728826e-06,0.0036202592628076596,1.0074007443306305e-06,0.003952607029099597
172.5,-0.005613419603545326,0.0021013064614555125,-0.0016033414198956069,0.0002635033716483124,4.794068003496674e-06,0.0034347260495392177,1.6243921600923709e-06,0.0037046478813511194
173.0,-0.005706658414464696,0.002008067650536143,-0.0014703780167550679,0.000214273517262733,2.8836353789951765e-06,0.0032587127429885188,2.5757716609637732e-06,0.0034784456672912107
173.5,-0.005947164116011342,0.0017675619489894972,-0.001503841416542885,0.00017393075317921015,1.7168217037542262e-06,0.0030917381885901493,4.0176020592684114e-06,0.003271403365532382
