wavelength,absorbance,absorbance_bk,residual_3gauss,Gauss_1,Gauss_2,Gauss_3,Gauss_4,Gauss_fit
117.0,0.5518699867612524,0.5552410609302258,-0.00629346272087683,3.061100418200712e-07,8.496903932362236e-32,0.5615342175410608,1.7157882330601365e-59,0.5615345236511027
117.5,0.5458144674564884,0.5491855416254618,-0.008446371385255502,5.804020913797541e-07,8.997449066514197e-31,0.557631332608626,3.1294657625820747e-58,0.5576319130107174
118.0,0.5446162869622926,0.547987361131266,-0.005067627760440452,1.0787779661288867e-06,8.970050897821014e-30,0.5530539101137403,5.393115798833591e-57,0.5530549888917065
118.5,0.5403001884900892,0.5436712626590626,-0.004167699084133725,1.9664172489776376e-06,8.430226251293863e-29,0.5478369953259473,8.791439894897297e-56,0.5478389617431964
119.0,0.5387926977377229,0.5421637719066963,0.00014350154803222104,3.5167710262385013e-06,7.478102069799884e-28,0.5420167535876378,1.3570866129422764e-54,0.5420202703586641
119.5,0.5380608632497117,0.5414319374186851,0.005795568527501627,6.173298008796337e-06,6.268704297696909e-27,0.5356301955931747,1.9858577203485627e-53,0.5356363688911835
120.0,0.5305396615569768,0.5339107357259503,0.005185179374632254,1.0640714377065557e-05,4.9717872532346136e-26,0.528714915636941,2.7576354920355418e-52,0.528725556351318
120.5,0.5209643205507593,0.5243353947197327,0.0030085338408452067,1.80167410837488e-05,3.7350619561003203e-25,0.5213088441378038,3.637630928142071e-51,0.5213268608788875
121.0,0.5174153979326923,0.5207864721016657,0.007306478738048239,2.99778910359895e-05,2.6608729054473103e-24,0.5134500154725815,4.562767217120863e-50,0.5134799933636175
121.5,0.5123039072841065,0.5156749814530799,0.01044959425897829,4.903530210026739e-05,1.7995780873744078e-23,0.5051763518920013,5.4474218013426695e-49,0.5052253871941016
122.0,0.5031421675373796,0.506513241706353,0.009908899035664998,7.887861953229417e-05,1.15665987535046e-22,0.4965254640511557,6.196155623972245e-48,0.49660434267068804
122.5,0.4917049446807857,0.49507601884975916,0.0074167234179579045,0.00012482696773753995,7.072720172666002e-22,0.48753446846406373,6.720918075066522e-47,0.48765929543180125
123.0,0.4821024378346328,0.4854735120036063,0.007039284492608933,0.00019440552165325326,4.118699205630401e-21,0.4782398219893441,6.958364784209945e-46,0.47843422751099735
123.5,0.47108476185694154,0.474455836025915,0.005480599334386549,0.00029806341970468094,2.2864580879885678e-20,0.4686771732718238,6.882506614288482e-45,0.46897523669152846
124.0,0.4595740300100633,0.4629451041790368,0.0036138301943671736,0.00045004308154092805,1.2112194433293425e-19,0.45888123090312866,6.509189612660874e-44,0.4593312739846696
124.5,0.448378850240302,0.45174992440927547,0.002194874655225887,0.0006694018313835419,6.128525918416449e-19,0.44888564792266605,5.89141600400691e-43,0.4495550497540496
125.0,0.4349813021009053,0.4383523762698788,-0.0013517196151934807,0.0009811737265313278,2.964630635964179e-18,0.4387229221585409,5.10726566423021e-42,0.43970409588507225
125.5,0.4244123564775634,0.4277834306465369,-0.002058523801025891,0.00141764264264965,1.3723507409676144e-17,0.42842431180491314,4.2441310116099743e-41,0.4298419544475628
126.0,0.41236622712803367,0.41573730129700714,-0.00430214168533366,0.0020196774350039843,6.084561227692423e-17,0.4180197655473368,3.3835183961986117e-40,0.4200394429823408
126.5,0.40162468561032894,0.4049957597793024,-0.00538016410281994,0.0028380574025418503,2.586091968253018e-16,0.40753786647958024,2.5898108787347878e-39,0.41037592388212235
127.0,0.3901344567516063,0.39350553092057977,-0.0074349510400484875,0.003934692957502781,1.0545851936301712e-15,0.39700578900312444,1.904672372641211e-38,0.40094048196062826
127.5,0.3804658785650109,0.3838369527339844,-0.007995939673654862,0.005383624544837282,4.129586347591292e-15,0.3864492678627978,1.3469486776916149e-37,0.39183289240763924
128.0,0.37200789866190015,0.3753789728308736,-0.007785270726789362,0.0072716651102066165,1.554084819216497e-14,0.37589257844744084,9.165985686010631e-37,0.383164243557663
128.5,0.3646272090009116,0.3679982831698851,-0.007058784969152909,0.009698540667054077,5.625153955463835e-14,0.36535852747192765,6.0064335272002485e-36,0.375057068139038
129.0,0.35814957083925647,0.36152064500822995,-0.0061241907374337545,0.012776382590623815,1.9598652554268576e-13,0.3548684531548439,3.792878388204616e-35,0.3676448357456637
129.5,0.35226278130242367,0.35563385547139714,-0.00543681513521499,0.016628436592405083,6.577838741473292e-13,0.3444422340135493,2.309589465887466e-34,0.36107067060661213
130.0,0.347731446511883,0.35110252068085646,-0.004382663285428301,0.02138687855032477,2.128292197307956e-12,0.3340983054138317,1.3570843874767888e-33,0.35548518396628476
130.5,0.344733302424689,0.3481043765936625,-0.00293897346811961,0.02718966702131029,6.643378727055415e-12,0.32385368303382844,7.699659222216357e-33,0.3510433500617821
131.0,0.34273812371960716,0.34610919788858063,-0.0017912100627396899,0.03417641550109746,2.002019359684641e-11,0.31372399243020266,4.22093937312573e-32,0.3479004079513203
131.5,0.34214871187682094,0.3455197860457944,-0.0006870499085404602,0.04248333196840969,5.82873150542494e-11,0.30372350392763786,2.237145261354724e-31,0.3462068359543349
132.0,0.34286431277775303,0.3462353869467265,0.00013286957299762925,0.052237345119987226,1.6406077668977811e-10,0.2938651720896809,1.1470846878734546e-30,0.3461025173737289
132.5,0.3456426400175482,0.34901371418652166,0.0013034238171256152,0.0635496108538438,4.46737486989089e-10,0.28416067906881476,5.6934587923763456e-30,0.34771029036939605
133.0,0.34916511564184854,0.352536189810822,0.0014070444832557372,0.07650866297426745,1.1776131884342712e-09,0.27462048117568566,2.7371209859540764e-29,0.3511291453275663
133.5,0.35433848224620845,0.35770955641518193,0.0012821629789972477,0.09117353237831972,3.0070118607016088e-09,0.2652538580508531,1.275267532618015e-28,0.3564273934361847
134.0,0.361699822607042,0.36507089677601545,0.0014347224861515628,0.10756720298064457,7.442578925040901e-09,0.2560689638666404,5.761628945278471e-28,0.3636361742898639
134.5,0.3701933316238532,0.3735644057928267,0.0008207128366896632,0.12567079505870357,1.7866330540530874e-08,0.2470728800311029,2.5256201933966705e-27,0.372743692956137
135.0,0.38145339109914206,0.38482446526811553,0.0011338909930217467,0.1454188637418938,4.162296162473503e-08,0.23827166891023838,1.0747481526265975e-26,0.3836905742750938
135.5,0.3931282236262196,0.39649929779519305,0.0001326053489724699,0.16669617015682542,9.416138291693318e-08,0.22967042812801225,4.4421536713465747e-26,0.3963666924462206
136.0,0.40639651547601097,0.40976758964498444,-0.0008421880179371732,0.1893362256474866,2.0696934725661834e-07,0.2212733450460878,1.7842521110110423e-25,0.4106097776629216
136.5,0.42153207829243033,0.4249031524614038,-0.0013028690621048056,0.21312182819662293,4.422607615429715e-07,0.21308375106612412,6.968151352000264e-25,0.4262060215235086
137.0,0.43834072033558824,0.4417117945045617,-0.0011810096984981588,0.23778770952257525,9.192436251479811e-07,0.20510417543685952,2.6472568455542466e-24,0.4428928042030599
137.5,0.45633052201379987,0.45970159618277334,-0.0006619595426496372,0.2630252979306343,1.8595090636547682e-06,0.19733639828572505,9.788265947494815e-24,0.460363555725423
138.0,0.4750681641901541,0.47843923835912755,0.0001645892439101071,0.2884894836940374,3.662790858808673e-06,0.18978150263032126,3.52416585609547e-23,0.47827464911521744
138.5,0.4950746768005163,0.4984457509694898,0.0021916378405198444,0.31380715889856486,7.0290717980066184e-06,0.18243992515860705,1.236099220247637e-22,0.49625411312896994
139.0,0.5141488403152462,0.5175199144842196,0.003608059876111347,0.3385872004842138,1.3148525849368977e-05,0.1753115055980451,4.2256950081306964e-22,0.5139118546081083
139.5,0.5316235088762902,0.5349945830452636,0.004143581132912799,0.3624314809387905,2.3986450378408962e-05,0.16839553452318184,1.4086016102115166e-21,0.5308510019123508
140.0,0.5473005521545221,0.5506716263234955,0.003991700340580828,0.3849464315195775,4.269498514840078e-05,0.16169079947818873,4.580542314916644e-21,0.5466799259829147
140.5,0.5602324851515281,0.5636035593205015,0.002579092946898953,0.40575465182410214,7.418523368168093e-05,0.15519562931581873,1.453697162213336e-20,0.5610244663736026
141.0,0.570863803599768,0.5742348777687414,0.0006949924692402076,0.42450605861068624,0.0001258900118049326,0.14890793667701002,4.5044855788845207e-20,0.5735398852995012
141.5,0.5786549524273127,0.5820260265962861,-0.0018960634050314562,0.44088809533170603,0.00020873611349811447,0.1428252585561134,1.3633673945142231e-19,0.5839220900013176
142.0,0.5849207798539132,0.5882918540228866,-0.0036258431223124,0.4546345791241576,0.0003383231055668784,0.13694479491547457,4.032326600247139e-19,0.591917697145199
142.5,0.5893393288031401,0.5927104029721135,-0.004622153317506483,0.46553283945424195,0.0005362715054606939,0.13126344532991738,1.1658662882306007e-18,0.59733255628962
143.0,0.5915864840642922,0.5949575582332656,-0.005080838575668323,0.47342889635804203,0.000831656794159927,0.12577784365673197,3.2965811174265278e-18,0.6000383968089339
143.5,0.5924671269648971,0.5958382011338705,-0.004139108973954642,0.47823052959151036,0.001262389776291941,0.12048439074002291,9.119460681383262e-18,0.5999773101078252
144.0,0.5911594896762344,0.5945305638452079,-0.0026332617902917743,0.47990819610238633,0.001876344363125201,0.11537928516998809,2.4690508204777338e-17,0.5971638256354996
144.5,0.5872106223394251,0.5905816965083985,-0.0011026915036335128,0.47849385547170986,0.0027319804125059298,0.11045855212781616,6.544979804388053e-17,0.591684388012032
145.0,0.58067486171682,0.5840459358857935,0.000351835939893963,0.4740778555151997,0.0038981740750510816,0.1057180703556485,1.6992715915612958e-16,0.5836940999458995
145.5,0.5720546226539679,0.5754256968229413,0.0020150265599311323,0.46680410837830183,0.005452964586244043,0.10115359729846386,4.3226415866594967e-16,0.5734106702630102
146.0,0.5613749174917044,0.5647459916606778,0.003640384627623172,0.456863847848835,0.007480966713263526,0.09676079247095502,1.077755759416741e-15,0.5611056070330547
146.5,0.5480546561008781,0.5514257302698515,0.004332901905168107,0.44448829934769846,0.010069289909406027,0.09253523910757627,2.63466861678098e-15,0.5470928283646834
147.0,0.531931034308377,0.5353021084773504,0.0035870804493803865,0.4299406146733821,0.013301949196564423,0.08847246415801718,6.317032794990496e-15,0.53171502802797
147.5,0.5145805529362312,0.5179516271052046,0.00262330547653844,0.41350742490758774,0.017252940027524515,0.08456795669353902,1.4860243325215046e-14,0.5153283216286662
148.0,0.49510894025209606,0.49848001442106954,0.00019411982412781414,0.39549034887028284,0.02197836093467745,0.08081718479194708,3.430882128317242e-14,0.4982858945969417
148.5,0.4766565002619061,0.48002757443087957,-0.0008939763989810334,0.3761977639083563,0.027508175950864903,0.07721561097056164,7.776631436087698e-14,0.4809215508298606
149.0,0.459975448076282,0.46334652224525547,-0.00018766847978707313,0.3559371039213037,0.03383838056606787,0.07375870623749795,1.73108826406829e-13,0.46353419072504254
149.5,0.4431204164408557,0.4464914906098292,0.0001171906592679628,0.3350078999328813,0.040924437185407954,0.0704419628318934,3.785493069470972e-13,0.4463742999505612
150.0,0.42579153409187487,0.42916260826084834,-0.00047087365716180773,0.3136957247618671,0.04867685143176146,0.06726090572356815,8.134527086587492e-13,0.42963348191801015
150.5,0.4096462788972728,0.41301735306624626,-0.00042055229480275624,0.29226714874305576,0.05695965367430862,0.06421110294196644,1.7182145139177399e-12,0.413437905361049
151.0,0.39312127618869,0.3964923503576635,-0.0013539167038004174,0.27096576090530783,0.06559233134935887,0.061288174803228734,3.568485058512775e-12,0.3978462670614639
151.5,0.37716246007202886,0.38053353424100234,-0.002318974917333405,0.25000926189845846,0.07435544514969203,0.05848780210289619,7.289129454500877e-12,0.38285250915833574
152.0,0.3616078584626772,0.36497893263165065,-0.003414184166140366,0.22958759305081203,0.08299979039221082,0.05580573334012033,1.464786334243783e-11,0.368393116797791
152.5,0.34779715534232836,0.35116822951130183,-0.003190172844019179,0.20986203139887377,0.09125857989007607,0.05323779103740445,2.8966700782750822e-11,0.354358402355321
153.0,0.3350549784278471,0.33842605259682057,-0.002180755871258322,0.19096515394349992,0.09886177725035382,0.05077987721783971,5.638544618456322e-11,0.3406068084680789
153.5,0.3230913692196228,0.32646244338859626,-0.0005185378157800402,0.17300155581454868,0.10555144718215241,0.048427978099608214,1.0806702171197057e-10,0.3269809812043763
154.0,0.310982032693526,0.31435310686249945,0.00102889383540955,0.15604919609545626,0.11109684866244847,0.046178168065203945,2.0398129388308408e-10,0.3133242130270899
154.5,0.29755158290637823,0.3009226570753517,0.0014268052855208602,0.14016124105729824,0.11530799739282972,0.044026612960414734,3.7928813446896897e-10,0.29949585178983085
155.0,0.28413312717398215,0.2875042013429556,0.0021197855022623835,0.1253682765279229,0.11804656584219304,0.04196957277565111,6.949261526596933e-10,0.28538441584069324
155.5,0.27007097445905826,0.27344204862803173,0.00252462277133525,0.11168076798305997,0.11923325285903917,0.040003403759708414,1.2548889282150987e-09,0.2709174258566965
156.0,0.2546701388831276,0.2580412130521011,0.0019738882293541815,0.0990916575463124,0.11885110502893956,0.038124560013542357,2.233952605818182e-09,0.2560673248227469
156.5,0.23959529546859687,0.24296636963757032,0.0021131074531417215,0.08757900029636356,0.11694466335747103,0.036329594609136054,3.921457933661107e-09,0.2408532621844286
157.0,0.22383828925168248,0.22720936342065592,0.0018704459608385737,0.07710855705299526,0.1136151933414276,0.034615160276060986,6.789333503903429e-09,0.22533891745981735
157.5,0.2083993237334812,0.21177039790245464,0.0021435102780814896,0.06763627621848992,0.10901259011389296,0.03297800969589129,1.1596099003862029e-08,0.20962688762437315
158.0,0.1927887788969204,0.19615985306589384,0.0023094264087384353,0.059110612503642426,0.10332479916790904,0.031414995442240745,1.954336319583086e-08,0.1938504266571554
158.5,0.17669143739110063,0.18006251156007408,0.0018990276542464046,0.051474644842363325,0.09676573695399728,0.02992306960186138,3.250760570269657e-08,0.17816348390582767
159.0,0.15999541656110544,0.1633664907300789,0.0006364560265919028,0.04466796902940431,0.08956272918603438,0.028499283109972316,5.337807600056426e-08,0.162730034703487
159.5,0.1437102231958572,0.14708129736483064,-0.0006323429892547694,0.03862835228688822,0.08194441669470362,0.027140784830801984,8.654169158624484e-08,0.1477136403540854
160.0,0.12789183770337223,0.13126291187234568,-0.0020051228679110744,0.033293146897384635,0.0741299288626421,0.02584482041221059,1.3856801942518557e-07,0.13326803474025675
160.5,0.11306748924293732,0.11643856341191076,-0.0030907745765235,0.028600468171171664,0.06631991971425026,0.0246087309412291,2.1916178323992202e-07,0.11952933798843426
161.0,0.09818345780088998,0.10155453196986343,-0.005055741064272784,0.024490148374680235,0.058689830767406914,0.023429951425412987,3.4246663607822746e-07,0.10661027303413621
161.5,0.08547772932191443,0.08884880349088788,-0.005747732764670721,0.02090448294031845,0.05138551537054571,0.022306009123042536,5.288216518999113e-07,0.0945965362555586
162.0,0.07446931773414461,0.07784039190311806,-0.005704879702183169,0.017788788461352605,0.04452115431029119,0.021234521743443806,8.070902136313928e-07,0.08354527160530123
162.5,0.06506908424595986,0.06844015841493331,-0.0050452768209980625,0.015091793838286438,0.03817922816229086,0.020213195537015883,1.2176983381865735e-06,0.07348543523593137
163.0,0.057153504765813046,0.0605245789347865,-0.0038951445424492068,0.0127658866909324,0.032412196959243134,0.01923982329296391,1.8165340962706896e-06,0.06441972347723571
163.5,0.05043677835754504,0.05380785252651849,-0.0025198206480896088,0.010767236991595137,0.02724547405254018,0.018312282261231667,2.679869241118029e-06,0.0563276731746081
164.0,0.044685511914646966,0.04805658608362042,-0.001112939948731101,0.009055819010531575,0.02268126454256516,0.017428532013705443,3.910465549343509e-06,0.04916952603235152
164.5,0.040202923640738235,0.04357399780971169,0.0006835280183526138,0.007595351280999845,0.018702861233517214,0.01658661225843171,5.645018410309365e-06,0.042890469791359076
165.0,0.03621249337750153,0.03958356754647498,0.002158648977385498,0.006353172553339084,0.015279042331021354,0.015784640619331294,8.063065397756547e-06,0.037424918569089485
165.5,0.03341411069077043,0.036785184859743886,0.004084623220056489,0.005300069758242151,0.012368284044197632,0.015020810392722652,1.1397444524963769e-05,0.032700561639687396
166.0,0.03068211469217444,0.034053188861147894,0.00541120465274747,0.004410071957135082,0.009922577637723874,0.014293388290865836,1.594632267563235e-05,0.028641984208400424
166.5,0.02855949074914832,0.031930564918121775,0.006756828030985481,0.0036602222171936804,0.007890715760981167,0.013600712181714892,2.208672724655677e-05,0.025173736887136294
167.0,0.02637664044333005,0.0297477146123035,0.007524918276737989,0.0030303373826132286,0.006220980717229819,0.012941188833112845,3.0289402609618734e-05,0.022222796335565512
167.5,0.024974342297677036,0.028345416466650487,0.008625002546413529,0.0025027638748811773,0.004863223697893984,0.012313291668774373,4.1134678687423043e-05,0.01972041392023696
168.0,0.023384618155446214,0.026755692324419666,0.009152301917158115,0.0020621359781281333,0.003770367001497967,0.011715558542581129,5.532888505432225e-05,0.01760339040726155
168.5,0.022107303973667006,0.025478378142640458,0.009663535608777859,0.00169514157158422,0.0028993907489581485,0.011146589536951442,7.372067636878989e-05,0.0158148425338626
169.0,0.021529242402065336,0.024900316571038788,0.010595773597022812,0.0013902989682634606,0.0022118827532872764,0.010605044790343859,9.731646212137996e-05,0.014304542974015975
169.5,0.020379542009780944,0.023750616178754395,0.010721695476188975,0.0011377474064039306,0.001674236971137924,0.010089642358306195,0.00012729396671737114,0.01302892070256542
170.0,0.01925839591042712,0.02262947007940057,0.010678663651276772,0.0009290528101091888,0.00125758470805265,0.009599156111883693,0.00016501279807826818,0.0119508064281238
170.5,0.01885369699991996,0.02222477116889341,0.011185771167757874,0.0007570296753743583,0.0009375358600419508,0.009132413676655174,0.00021202078906405473,0.011039000001135536
171.0,0.018184081002416568,0.02155515517139002,0.011287429476531184,0.0006155793313980549,0.0006937971367689518,0.008688294415162813,0.0002700548115290168,0.010267725694858836
171.5,0.01692811686855894,0.02029919103753239,0.010683162204709322,0.0004995443572494939,0.0005097222579154169,0.008265727455044893,0.0003410347626132664,0.00961602883282307
172.0,0.016695636469358156,0.020066710638331608,0.010999555834345958,0.0004045785824783763,0.0003718369568133995,0.00786368976476255,0.000427049499931325,0.00906715480398565
172.5,0.015948982665234982,0.019320056834208434,0.01071211678399593,0.00032703184933110114,0.0002693702561094435,0.007481204278433091,0.0005303336663388689,0.008607940050212504
173.0,0.015189432884912143,0.018560507053885594,0.010332272322819892,0.00026384854699892105,0.0001938135121457836,0.007117338070938318,0.0006532346009826795,0.008228234731065702
173.5,0.014864663683399231,0.018235737852372685,0.010315369100109528,0.00021247882924301832,0.0001385204582426361,0.006771200584164856,0.0007981688806126463,0.007920368752263157
174.0,0.013947509481065191,0.017318583650038643,0.009639916921839957,0.00017080138188036527,9.835497507870967e-05,0.0064419419049545805,0.0009675684662850316,0.007678666728198687
174.5,0.013625891748876184,0.016996965917849636,0.009497952810047304,0.00013705660373973828,6.938847771671903e-05,0.006128751095090363,0.0011638169312555115,0.007499013107802332
