wavelength,absorbance,absorbance_bk,residual_3gauss,Gauss_1,Gauss_2,Gauss_3,Gauss_4,Gauss_fit
117.0,0.651486525364638,0.6570422562452036,-0.015092943623088884,7.972840503645351e-07,1.343373397905047e-51,0.6721344025842422,7.895870679583494e-115,0.6721351998682925
117.5,0.6485060900545968,0.6540618209351624,-0.01179056818406432,1.4806608872909678e-06,6.8405878865803765e-50,0.6658509084583394,2.271596346922196e-112,0.6658523891192267
118.0,0.6436393796791999,0.6491951105597655,-0.009567171394899598,2.696665221780872e-06,3.14936004511638e-48,0.6587595852894433,5.853871394330252e-110,0.6587622819546651
118.5,0.6404958730569771,0.6460516039375427,-0.004863053814721963,4.8185087676745625e-06,1.313732002812667e-46,0.650909839243497,1.354195809103693e-107,0.6509146577522646
119.0,0.6376240357399636,0.6431797666205292,0.0008192207371724436,8.45071255602816e-06,4.975634851911354e-45,0.6423520951708007,2.81818720269055e-105,0.6423605458833568
119.5,0.6326925986464205,0.6382483295269861,0.005096348664420991,1.4552768790839531e-05,1.7144626819821639e-43,0.6331374280937743,5.287021751600878e-103,0.6331519808625651
120.0,0.6239909528138757,0.6295466836944413,0.00620484999278248,2.4617385945118785e-05,5.385244064674436e-42,0.6233172163157137,8.959578622093584e-101,0.6233418337016589
120.5,0.6164069286566564,0.621962659537222,0.008978920514639888,4.092140668295393e-05,1.5449718278903573e-40,0.6129428176158991,1.3742372718375866e-98,0.6129837390225821
121.0,0.6068287805866844,0.61238451146725,0.01025237117496336,6.68706947377653e-05,4.0559639370147746e-39,0.6020652695975489,1.9115098166441104e-96,0.6021321402922867
121.5,0.5968084922656524,0.602364223146218,0.011521745433068609,0.00010746282821618104,9.761746379150287e-38,0.5907350148849332,2.4157730772131523e-94,0.5908424777131493
122.0,0.5841812437487072,0.5897369746292728,0.010565430456460967,0.00016989264629415463,2.1577641824253185e-36,0.5790016515265176,2.7791132995044915e-92,0.5791715441728118
122.5,0.5707300511410703,0.5762857820216359,0.009107748600621912,0.00026432476724312225,4.388222098023045e-35,0.5669137086537709,2.915510866051127e-90,0.567178033421014
123.0,0.5570993394480157,0.5626550703285813,0.00773176991918989,0.0004048532386993534,8.224869450303727e-34,0.5545184471706921,2.794162671962639e-88,0.5549233004093914
123.5,0.5424530958457883,0.5480088267263539,0.005536481100087864,0.0006106606188741921,1.4231668026324642e-32,0.5418616850073918,2.4505897348474174e-86,0.542472345626266
124.0,0.5270295272709966,0.5325852581515622,0.002690235603380331,0.0009073762865887447,2.277104466361055e-31,0.5289876462615931,1.9701901225185765e-84,0.5298950225481819
124.5,0.5119812970442992,0.5175370279248648,0.00026957834276319925,0.001328616208421146,3.374490977291785e-30,0.5159388333736804,1.4544031440600237e-82,0.5172674495821016
125.0,0.4966086765500975,0.5021644074306632,-0.0025091776988999115,0.0019176637967597673,4.6388870945027864e-29,0.5027559213328033,9.874278923842251e-81,0.5046735851295631
125.5,0.48170062339651526,0.4872563542770809,-0.004950543063995172,0.0027292245494295463,5.924698377862072e-28,0.48947767279164656,6.175317839470069e-79,0.4922068973410761
126.0,0.4678872334229864,0.47344296430355204,-0.006529065865675143,0.0038311572950443583,7.040724307821032e-27,0.47614087287418283,3.5630426847688966e-77,0.4799720301692272
126.5,0.4554191314233056,0.46097486230387125,-0.007111474384962957,0.005306054296895513,7.796581868807768e-26,0.4627802823919387,1.8995484245852885e-75,0.4680863366888342
127.0,0.4424653423256469,0.44802107320621254,-0.008660049080795817,0.007252514149117028,8.056564968206048e-25,0.4494286081378913,9.371151604659073e-74,0.45668112228700836
127.5,0.433055120692092,0.43861085157265767,-0.007291566184702558,0.009785928856332768,7.779710871749599e-24,0.43611648890102744,4.2843066262051867e-72,0.4459024177573602
128.0,0.4238715215490545,0.42942725242962015,-0.006483836929419784,0.013038593522525203,7.029759786224528e-23,0.42287249583651476,1.8177381258251348e-70,0.43591108935903994
128.5,0.4159854200387724,0.4215411509193381,-0.005340942283030281,0.017158947367957793,5.952007253533755e-22,0.40972314583441055,7.167212441006033e-69,0.42688209320236836
129.0,0.4098155135610805,0.41537124444164614,-0.003631453551833863,0.022309771441930044,4.7282669112516474e-21,0.39669292655155,2.6298413783384825e-67,0.41900269799348
129.5,0.40497118706377855,0.4105269179443442,-0.0019426172938404318,0.02866520343321904,3.52868754067105e-20,0.3838043318049656,8.991842942465442e-66,0.41246953523818464
130.0,0.40216606144247113,0.4077217923230368,0.00023740233256269727,0.03640648392169101,2.477091426636804e-19,0.3710779060687831,2.8686334932653687e-64,0.4074843899904741
130.5,0.4006932682835223,0.40624899916408796,0.002000282344088611,0.045716419951647,1.6376516043572243e-18,0.35853229686835236,8.549957754450021e-63,0.40424871681999935
131.0,0.40103218976061333,0.406587920641179,0.003630969079720492,0.05677263763771025,1.0208761941076866e-17,0.34618431392374827,2.3837412855501037e-61,0.4029569515614585
131.5,0.4024120060569833,0.40796773693754895,0.004178952574200645,0.06973979040522929,6.007680739496746e-17,0.334048993958119,6.224333074540889e-60,0.4037887843633483
132.0,0.40562606364339887,0.41118179452396453,0.0042811378182537885,0.08476098655229232,3.3413495558891756e-16,0.3221396701534181,1.5240046431569548e-58,0.40690065670571074
132.5,0.41181110619477823,0.4173668370753439,0.004950000651967046,0.10194879111792801,1.758355172414485e-15,0.3104680453054471,3.5030785638311905e-57,0.41241683642337684
133.0,0.41938433010226134,0.424940060982827,0.004519559025288389,0.1213762341566565,8.764734122495011e-15,0.29904426780087334,7.568039081900175e-56,0.4204205019575386
133.5,0.4288500826713136,0.43440581355187924,0.0034604914800973607,0.14306831246179127,4.142723256890829e-14,0.28787700960994916,1.5384245688224493e-54,0.4309453220717819
134.0,0.44095478742410527,0.4465105183046709,0.0025424749462810148,0.16699449779902106,1.85868466782912e-13,0.27697354555918297,2.945830584491039e-53,0.4439680433583899
134.5,0.45503457871908887,0.4605903095996545,0.0011877193166027755,0.1930627570647122,7.924027216704888e-13,0.2663398332175471,5.319215278288592e-52,0.45940259028305175
135.0,0.47106287122254953,0.4766186021031152,-0.00047753702963909683,0.22111554633228933,3.213253274945793e-12,0.2559805927972517,9.066830938240613e-51,0.4770961391327543
135.5,0.4892580294423251,0.49481376032289076,-0.002013788542063022,0.2509281623172688,1.2405998848715721e-11,0.24589938653527899,1.4604346933647964e-49,0.4968275488649538
136.0,0.5088892345535235,0.5144449654340891,-0.0038634569200132196,0.28220972522421395,4.5648471703104524e-11,0.23609869708423997,2.2251986833695017e-48,0.5183084223541023
136.5,0.530530398471008,0.5360861293515736,-0.005100808175416027,0.3146069328663052,1.6022842870362058e-10,0.22658000450045598,3.2103167271333443e-47,0.5411869375269897
137.0,0.5543378283955757,0.5598935592761413,-0.005160878990167372,0.3477105762560942,5.369998795612617e-10,0.21734386147321452,4.389783124376961e-46,0.5650544382663086
137.5,0.5799455291986316,0.5855012600791972,-0.003953360073079115,0.38106465194056716,1.7199828071469819e-09,0.20838996649172636,5.69468182522821e-45,0.5894546201522763
138.0,0.6063865427730065,0.6119422736535721,-0.0019527234878793376,0.4141777571765352,5.2695691629188665e-09,0.1997172346953471,7.015099868660109e-44,0.6138949971414515
138.5,0.6328697448414105,0.638425475721976,0.0005652728341971613,0.44653632123345105,1.5456278618729797e-08,0.19132386619804917,8.213625068716795e-43,0.6378602028877789
139.0,0.6586863797931729,0.6642421106737385,0.0034155364980892333,0.4776191190163157,4.343936599791333e-08,0.1832074117199676,9.148779868651246e-42,0.6608265741756493
139.5,0.6819424085440233,0.6874981394245889,0.005220747828951211,0.5069124391211507,1.1707736656022555e-07,0.17536483539712047,9.70290217851518e-41,0.6822773915956377
140.0,0.7022644241359226,0.7078201550164882,0.006102035432070996,0.5339252420588848,3.028503388207577e-07,0.16779257467519362,9.80676076611715e-40,0.7017181195844172
140.5,0.7181911015039742,0.7237468323845399,0.005055835195462599,0.5582036474821269,7.524822186371109e-07,0.16048659722473166,9.453721707291365e-39,0.7186909971890773
141.0,0.7300507508578643,0.7356064817384299,0.002818098962746318,0.5793441306441705,1.7972882712794366e-06,0.15344245484324184,8.699492981948846e-38,0.7327883827756836
141.5,0.7378509651599762,0.7434066960405418,-0.00025765217089235293,0.5970048841068621,4.129769744458777e-06,0.14665533433482747,7.648080671749265e-37,0.7436643482114341
142.0,0.7425283370007609,0.7480840678813265,-0.0029600780232643675,0.6109149047158114,9.135808652082843e-06,0.14012010538012748,6.428726137762874e-36,0.7510441459045909
142.5,0.7447667323000918,0.7503224631806574,-0.004408864059153195,0.6208804902395414,1.947157155843156e-05,0.1338313654287108,5.17072110625009e-35,0.7547313272398106
143.0,0.7447193529714291,0.7502750838519947,-0.004337376849468444,0.6267889660349464,4.001300359765845e-05,0.12778348166291906,3.9825769264610136e-34,0.7546124607014632
143.5,0.7415042012361611,0.7470599321167267,-0.003599631718118057,0.6286096006499925,7.933308835623878e-05,0.12197063009649596,2.939617136458569e-33,0.7506595638348448
144.0,0.7349233827671149,0.7404791136476805,-0.0024513863812677394,0.6263918018726199,0.0001518662727763562,0.11638683188355207,2.0809001211212928e-32,0.7429305000289482
144.5,0.7245635719454857,0.7301193028260513,-0.0014483653465396928,0.6202608039105959,0.0002808773385110932,0.11102598692348402,1.4137079581926676e-31,0.731567668172591
145.0,0.7108793071066657,0.7164350379872313,-0.0003602605637994527,0.6104111561762467,0.0005022375190606284,0.10588190485572334,9.22410521115724e-31,0.7167952985510307
145.5,0.6939059519444285,0.6994616828249941,0.0005461453718564879,0.5970984003794224,0.0008688035290169005,0.10094833354469838,5.784249549122081e-30,0.6989155374531376
146.0,0.6740599775656608,0.6796157084462264,0.0013124568177822482,0.580629373032388,0.0014548934356888757,0.09621898516036737,3.4883847472431e-29,0.6783032516284442
146.5,0.6513796284454432,0.6569353593260088,0.0015362175474119555,0.5613515946310688,0.0023599871842577102,0.09168755996327034,2.024636249794611e-28,0.6553991417785968
147.0,0.6263318413353289,0.6318875722158945,0.0011871772335600994,0.5396422059656488,0.0037104211113074934,0.08734776790537808,1.131618539076873e-27,0.6307003949823344
147.5,0.5988570443552561,0.6044127752358217,-0.0003350691543290152,0.5158968888921924,0.005657607338692298,0.08319334815926602,6.0948530113060776e-27,0.6047478443901507
148.0,0.5711118683943154,0.576667599274881,-0.0014409796567553812,0.4905191671727148,0.008371325070514624,0.0792180866884069,3.1652715295795555e-26,0.5781085789316364
148.5,0.5446425444531239,0.5501982753336895,-0.0011550057763632937,0.4639104270369434,0.01202702210231936,0.07541583197079,1.5860339695663382e-25,0.5513532811100528
149.0,0.5201273113722377,0.5256830422528033,0.0006547115123989311,0.43646093159959676,0.01678689015403,0.07178050898677754,7.672412130440079e-25,0.5250283307404043
149.5,0.4963871398034661,0.5019428706840318,0.002319017642477883,0.408542032796646,0.022775688664759205,0.06830613158014862,3.585324470106546e-24,0.4996238530415539
150.0,0.47349773614939167,0.4790534670299573,0.003513231938017114,0.38049971336015703,0.03005370843295388,0.06498681329882924,1.6194085444079212e-23,0.4755402350919402
150.5,0.4515367702717012,0.45709250115226685,0.0040356109653778005,0.3526495232523384,0.03859059011567973,0.061816776818870926,7.074005032912882e-23,0.45305689018688905
151.0,0.4304199228041608,0.43597565368472646,0.0036677960500914875,0.32527291293861016,0.0482445826440493,0.05879036205197551,2.9901996090523356e-22,0.432307857634635
151.5,0.40997275006025047,0.4155284809408161,0.0022596218312210814,0.2986149121266051,0.05875191394970296,0.05590203303328695,1.2237739869401854e-21,0.41326885910959504
152.0,0.39074805420293174,0.3963037850834974,0.0005442849842922093,0.2728830585688186,0.06973005784801493,0.05314638368237161,4.851816397494578e-21,0.3957595000992052
152.5,0.37335778735982056,0.3789135182403862,-0.0005489139890439976,0.24824744790508305,0.08069684179798911,0.05051814252635808,1.864408686307991e-20,0.3794624322294302
153.0,0.3570268136985832,0.36258254457914885,-0.0013762075068319835,0.2248417523228978,0.09110482329296975,0.04801217647011329,6.947662890774356e-20,0.36395875208598083
153.5,0.3413395853986631,0.34689531627922876,-0.001880866021272798,0.20276504250020325,0.10038764610610139,0.04562349369419695,2.5120037006903946e-19,0.34877618230050156
154.0,0.32545260893189726,0.3310083398124629,-0.0024358968669239145,0.18208424289917854,0.10801274802305282,0.043347245757155504,8.816672085267918e-19,0.33344423667938683
154.5,0.3089712827553552,0.31452701363592084,-0.003022128230503296,0.16283705373755253,0.1135333591543291,0.04117872897454253,3.005432145595091e-18,0.31754914186642413
155.0,0.2921940441837128,0.29774977506427847,-0.0030313410529376195,0.14503518244060887,0.11663254853368388,0.03911338514292332,9.954925440366018e-18,0.3007811161172161
155.5,0.2745144543724067,0.28007018525297234,-0.0028975701956029387,0.12866774157739486,0.11715321219813651,0.03714680167304382,3.2055689036112107e-17,0.2829677554485753
156.0,0.25633585431454703,0.2618915851951127,-0.002197931969198763,0.11370468774790182,0.1151101182240529,0.035274711192356596,1.0039489970362171e-16,0.26408951716431145
156.5,0.23766809173159953,0.24322382261216519,-0.0010523322109914357,0.1001001952608735,0.11068296888907654,0.033492990673206276,3.059548434960176e-16,0.24427615482315662
157.0,0.2192444384801135,0.22480016936067915,0.0010143019549110621,0.08779587853120178,0.1041923287353577,0.03179766013920769,9.076915068982004e-16,0.22378586740576809
157.5,0.2001522139199144,0.20570794480048005,0.0027366176336017234,0.07672379693067265,0.09606264923749927,0.03018488099870381,2.6226904613617648e-15,0.20297132716687832
158.0,0.1809587396773872,0.18651447055795284,0.004276225012535856,0.06680919455231041,0.086778096942414,0.028650954050685223,7.383677697181856e-15,0.18223824554541698
158.5,0.16170872900857555,0.16726445988914118,0.005261909528487402,0.05797294440952521,0.07683728874591363,0.027192317205194688,2.0262874938959972e-14,0.16200255036065378
159.0,0.14250147814928607,0.1480572090298517,0.0054055663158135425,0.05013368159408325,0.06671241816287878,0.025805542957021903,5.422685513839635e-14,0.14265164271403816
159.5,0.12350991793158635,0.129065648812152,0.0045518177841745305,0.04320962264355258,0.05681687273584255,0.024487335648440748,1.415767438442888e-13,0.12451383102797746
160.0,0.1053866994575044,0.11094243033807004,0.0031041684993144553,0.037120078749652834,0.04748365453491057,0.023234528553831426,3.607526257092956e-13,0.10783826183875558
160.5,0.0885190946829759,0.09407482556354155,0.0012889702091754413,0.03178667852497836,0.03895509601221248,0.02204408081627775,8.975113869894796e-13,0.0927858553543661
161.0,0.0730355169695375,0.07859124785010314,-0.0008389685700235378,0.027134321979885828,0.0313828201744243,0.020913074263635558,2.18098691722558e-12,0.07943021642012668
161.5,0.05929075165521278,0.06484648253577843,-0.002919940520986347,0.02309189135184067,0.024835821570633645,0.01983871012911183,5.178637578310217e-12,0.06776642305676478
162.0,0.04761219967923674,0.05316793055980238,-0.0045571324899619375,0.01959274672490351,0.019314010613738827,0.018818305699102353,1.201963104663812e-11,0.05772506304976432
162.5,0.03746524818607167,0.043020979066637315,-0.006167872823288845,0.016575035245305996,0.014764525708468588,0.0178492909088718,2.727977772315289e-11,0.04918885188992616
163.0,0.02917651020184051,0.03473224108240615,-0.007277264508115083,0.013981842450990864,0.011098458174317342,0.016929204904647884,6.05651330226838e-11,0.04200950559052123
163.5,0.022259907423007107,0.02781563830357275,-0.008207470740959979,0.011761213048336272,0.008206203275796924,0.016055692588818893,1.3158064056133185e-10,0.03602310904453273
164.0,0.017028739081637614,0.022584469962203257,-0.008478397591138529,0.00986606662751987,0.005970299482817831,0.015226501163169499,2.798345861139952e-10,0.031062867553341787
164.5,0.012885712683230896,0.01844144356379654,-0.008527294311449725,0.008254031521894573,0.004275229087108367,0.014439476683468485,5.827748418601441e-10,0.026968737875246264
165.0,0.009475544877153866,0.015031275757719509,-0.008562653102615402,0.006887217468911087,0.00301414956533592,0.013692560637209217,1.1888786865214184e-09,0.02359392886033491
165.5,0.0068508349232632975,0.01240656580382894,-0.008402039853624857,0.0057319450719373445,0.0020928716540003305,0.012983786554914441,2.3766016836405934e-09,0.020808605657453797
166.0,0.004777655048398494,0.010333385928964137,-0.008167939351458637,0.00475844741450678,0.0014315965448583523,0.012311276664128424,4.656929216955832e-09,0.018501325280422774
166.5,0.003346471883602004,0.008902202764167647,-0.00767659503581276,0.003940556633245773,0.0009649936250861374,0.01167323859403828,8.947610218443456e-09,0.016578797799980408
167.0,0.0019502495337127969,0.00750598041427844,-0.007458560395030532,0.003255385879393739,0.0006411759300647441,0.011067962137579835,1.6862270653520378e-08,0.014964540809308972
167.5,0.001190943323545069,0.006746674204110712,-0.006850236924089419,0.0026830149354954576,0.0004200489368549084,0.010493816076886804,3.117896295956083e-08,0.01359691112820013
168.0,0.000569911820069801,0.006125642700635444,-0.006301245648211558,0.0022061858288139956,0.00027140086121813965,0.009949245077035332,5.6581779535138776e-08,0.012426888348847002
168.5,-0.00029972218686293093,0.005256008693702712,-0.006159864572108028,0.0018100131063425874,0.00017299270012022445,0.009432766652205014,1.0080714291217932e-07,0.01141587326581074
169.0,-0.0005909623620128064,0.004964768518552837,-0.005568896865350988,0.001481712006201763,0.0001088087963092965,0.008942968207625681,1.76373767084801e-07,0.010533665383903825
169.5,-0.000842384959711272,0.004713345920854371,-0.0050433590129633915,0.001210346566063672,6.755107652591815e-05,0.00847850415999665,3.0313123152390275e-07,0.009756704933817762
170.0,-0.0011846025595201592,0.004371128321045484,-0.004695479533573837,0.0009865987342563038,4.140405817846805e-05,0.008038093138446249,5.119237382987736e-07,0.00906660785461932
170.5,-0.0014547444940720539,0.004100986386493589,-0.0043479987181324975,0.0008025587726459284,2.506133722369825e-05,0.007620515267546045,8.497272104161312e-07,0.008448985104626086
171.0,-0.0018482306177976604,0.0037075002627679826,-0.004185016403200125,0.0006515366394577094,1.4983822946699032e-05,0.007224609533392711,1.3866701709882905e-06,0.007892516665968108
171.5,-0.0020225962658241415,0.0035331346147415015,-0.0038551067963223,0.0005278935914192763,8.851207721985455e-06,0.006849271233325122,2.2253785974182578e-06,0.007388241411063801
172.0,-0.002259945301331116,0.003295785579234527,-0.003633237026003927,0.0004268929249892063,5.167095682822325e-06,0.006493449509445773,3.513075120651971e-06,0.006929022605238454
172.5,-0.0025698594048134053,0.0029858714757522377,-0.0035232804881590615,0.00034456856419413435,2.9816403752819493e-06,0.006156144965762249,5.456793579633189e-06,0.006509151963911299
173.0,-0.002817452159994417,0.002738278720571226,-0.0033857817373813496,0.00027761007773536987,1.7010916350349816e-06,0.005836407368453138,8.34192012903344e-06,0.006124060457952576
173.5,-0.002872656934498453,0.00268307394606719,-0.00308703591436671,0.00022326265260235893,9.597563156624206e-07,0.005533333428487928,1.2554023027950442e-05,0.0057701098604339
174.0,-0.002933009760336576,0.002622721120229067,-0.0028217232796006715,0.00017924054972276972,5.356121982899411e-07,0.005246064665592328,1.860357231635114e-05,0.0054444443998297384
174.5,-0.003138670981593681,0.002417059898971962,-0.0027278264615059984,0.00014365260568564018,2.9572622105121634e-07,0.004973785352342486,2.7152676228784015e-05,0.00514488636047796
