wavelength,absorbance,absorbance_bk,residual_3gauss
117.0,0.3615873470582712,0.3714768881973352,-0.008502497336990544
117.5,0.35941635769480207,0.36930589883386605,-0.007096596382233034
118.0,0.3561047710658695,0.3659943122049335,-0.006375648481269314
118.5,0.35578645438363066,0.36567599552269464,-0.002234002554950709
119.0,0.35491284633263137,0.36480238747169536,0.0017508680254441633
119.5,0.349818262680414,0.359707803819478,0.001883811200401042
120.0,0.34428145766984497,0.35417099880890895,0.0019136557454517145
120.5,0.3406965905325164,0.35058613167158037,0.004204223355755654
121.0,0.33660698292843094,0.3464965240674949,0.0062680671018015555
121.5,0.32999489241977875,0.33988443355884274,0.006056148262196137
122.0,0.3236031454148383,0.3334926865539023,0.006279281461876285
122.5,0.31484021199259754,0.3247297531316615,0.0043129177359607085
123.0,0.30849023290813044,0.3183797740471944,0.004906765333486274
123.5,0.29976863686602984,0.3096581780050938,0.0032398802097845514
124.0,0.29098138349981684,0.3008709246388808,0.0015792622754025598
124.5,0.2826462030633592,0.2925357442024232,0.0004003384466448878
125.0,0.2747652940424451,0.2846548351815091,-0.000341184233537406
125.5,0.266395494684175,0.276285035823239,-0.0016400430681484113
126.0,0.2585004660919734,0.2683900072310374,-0.0025901319956014857
126.5,0.2508280925022324,0.2607176336412964,-0.0035079278021111215
127.0,0.2441369223156011,0.2540264634546651,-0.003706723433431147
127.5,0.23853479028194963,0.24842433142101364,-0.0031584327886332864
128.0,0.23238951007645664,0.24227905121552065,-0.0035829755504078464
128.5,0.22798904891040697,0.23787859004947098,-0.002787728103688436
129.0,0.223810179259706,0.23369972039877002,-0.002397951570979301
129.5,0.2213520778959603,0.2312416190350243,-0.0010216508950433023
130.0,0.21912924788537524,0.22901878902443926,-0.0002544413168106274
130.5,0.2179611383125856,0.2278506794516496,0.0006129633392892297
131.0,0.21738990019705068,0.2272794413361147,0.0010160451153518324
131.5,0.2184407707578904,0.2283303118969544,0.0018809676399911268
132.0,0.2201337334575517,0.2300232745966157,0.002140765803065714
132.5,0.22268360043404897,0.23257314157311298,0.0019402028050363174
133.0,0.22689979750040107,0.23678933863946508,0.0020403501548630076
133.5,0.23197421286826847,0.24186375400733248,0.0016109969596397322
134.0,0.23851591234410996,0.24840545348317397,0.0012694210109978898
134.5,0.24614223818615344,0.2560317793252174,0.0006747705385303226
135.0,0.2548142804761828,0.2647038216152468,-0.0001342022930098663
135.5,0.2646477874173062,0.2745373285563702,-0.0009271986011487598
136.0,0.27548762709078944,0.28537716822985343,-0.0017082615877044294
136.5,0.28767405435743726,0.29756359549650124,-0.0019513278793734656
137.0,0.30031432487028287,0.31020386600934685,-0.0023319064849220417
137.5,0.3145682319721605,0.3244577731112245,-0.0014462355159164941
138.0,0.3289611909940888,0.3388507321331528,-0.0005041391142845963
138.5,0.3438130239365475,0.3537025650756115,0.0010927926205122618
139.0,0.3579534086794978,0.3678429498185618,0.0024589473887108304
139.5,0.37086559182598566,0.38075513296504965,0.0033602810033498964
140.0,0.38184890325787846,0.39173844439694244,0.003368637164724353
140.5,0.39057980949103344,0.4004693506300974,0.0024148776756798274
141.0,0.3975276825923226,0.40741722373138656,0.0011973202904789204
141.5,0.4019784919572282,0.41186803309629216,-0.0008010332709657009
142.0,0.4049891917789393,0.41487873291800326,-0.002363495758859191
142.5,0.40684171139932046,0.41673125253838444,-0.0030898816151885278
143.0,0.4073592927466718,0.4172488338857358,-0.0030830972334010553
143.5,0.4061326389844871,0.4160221801235511,-0.00272471657755069
144.0,0.4032564609937573,0.41314600213282127,-0.0019390755005035398
144.5,0.3980357284543232,0.4079252695933872,-0.0014867402321716572
145.0,0.3912596156678783,0.4011491568069423,-0.0006895154778614465
145.5,0.3828556071401957,0.39274514827925966,0.0002253867542003074
146.0,0.37280369922700546,0.38269324036606944,0.001042003107831535
146.5,0.3609627989251991,0.3708523400642631,0.0013854358650963183
147.0,0.3472764547995837,0.3571659959386477,0.0009323986215850621
147.5,0.3328195411736743,0.3427090823127383,0.00046469116787711817
148.0,0.31748989830411184,0.3273794394431758,-0.00042979426575562307
148.5,0.30330158037584504,0.313191121514909,-5.1460657572555135e-05
149.0,0.2898016478788413,0.29969118901790526,0.000843160947478494
149.5,0.276782679306378,0.286672220445442,0.001771695442340404
150.0,0.2643786078347414,0.27426814897380536,0.002640570542027043
150.5,0.25212561012526413,0.2620151512643281,0.0028236848314841523
151.0,0.2401569249498555,0.2500464660889195,0.0023714307065886286
151.5,0.22846345572116988,0.2383529968602339,0.0012793250389924737
152.0,0.21746020480487227,0.22734974594393628,5.416814229625144e-05
152.5,0.20755034321839053,0.21743988435745454,-0.0007315913454308542
153.0,0.19865193071227416,0.20854147185133817,-0.0009320078259128228
153.5,0.18960706828996476,0.19949660942902878,-0.001444741208253053
154.0,0.1809286952062388,0.19081823634530282,-0.0014947797960821185
154.5,0.1714619637569443,0.18135150489600832,-0.00200387850863179
155.0,0.16207453232900795,0.17196407346807197,-0.0019272310437896678
155.5,0.15225908110421552,0.16214862224327953,-0.0016704970177585932
156.0,0.14190347691753355,0.15179301805659756,-0.0013293725763612319
156.5,0.1310927387993286,0.1409822799383926,-0.0008867344366863261
157.0,0.12067336582915392,0.13056290696821793,0.0003623961867348924
157.5,0.1100440086210948,0.11993354976015881,0.001619865936562992
158.0,0.09930395777168206,0.10919349891074608,0.0027557711570728866
158.5,0.08812666179191973,0.09801620293098375,0.0032060401563657887
159.0,0.07751644092250039,0.0874059820615644,0.003751272972895403
159.5,0.06656513002170882,0.07645467116077283,0.003291179911141473
160.0,0.05596890329826745,0.06585844443733146,0.0023734485924377102
160.5,0.04632817404279691,0.05621771518186092,0.0014995226997577271
161.0,0.03708500230539279,0.0469745434444568,6.219619625481149e-05
161.5,0.02866796048344702,0.03855750162251103,-0.0015139241209574938
162.0,0.021115979156024096,0.031005520295088105,-0.0031561259565802864
162.5,0.01566771720143251,0.02555725834049652,-0.003563428459544934
163.0,0.009935760360017245,0.019825301499081252,-0.005041911287975237
163.5,0.005500475400417694,0.015390016539481702,-0.0059196763714487
164.0,0.002036860746276868,0.011926401885340877,-0.006427426038079189
164.5,-0.0001917344123940816,0.009697806726669927,-0.006210454404544359
165.0,-0.0026541115274373484,0.007235429611626661,-0.0066530959382397215
165.5,-0.004315934449587345,0.005573606689476663,-0.006645780805291601
166.0,-0.005832212763668694,0.0040573283753953145,-0.006778538904174491
166.5,-0.006924170795968513,0.0029653703430954957,-0.006717895127367671
167.0,-0.007408351657362804,0.002481189481701205,-0.0062353265196692445
167.5,-0.008064813538139225,0.0018247276009247838,-0.006074417761490224
168.0,-0.008742056827985501,0.0011474843110785074,-0.006054573631340634
168.5,-0.00874014286554451,0.0011493982735194981,-0.005452906938171191
169.0,-0.009405897567842244,0.00048364357122176495,-0.005598296259681302
169.5,-0.009889541139064009,0.0,-0.0056270097358023085
170.0,-0.009657927896151454,0.00023161324291255496,-0.00499509998704617
170.5,-0.009511615556007331,0.00037792558305667703,-0.004494787792639376
171.0,-0.0094501211563896,0.0004394199826744088,-0.004119176594858014
171.5,-0.009236350596835842,0.0006531905422281666,-0.003626263320680765
172.0,-0.009364835347793272,0.0005247057912707367,-0.003506855947990239
172.5,-0.009388179112283105,0.0005013620267809039,-0.003310778746038771
173.0,-0.009285216141648178,0.0006043249974158303,-0.0030148477907286715
173.5,-0.008926559030276464,0.0009629821087875443,-0.0024882787650766275
174.0,-0.009057709079126564,0.000831832059937445,-0.0024756875597314694
174.5,-0.008801814166238136,0.0010877269728258726,-0.0020997589286816686
175.0,-0.008639967228647644,0.0012495739104163642,-0.0018414690526722525
175.5,-0.008327336446165583,0.0015622046928984255,-0.0014561478186193287
176.0,-0.008007509081707189,0.0018820320573568194,-0.0010877590523370741
176.5,-0.008051864191406882,0.0018376769476571263,-0.0011082114370502675
177.0,-0.007723141746746829,0.00216639939231718,-0.0007808661628045809
177.5,-0.007057223911537728,0.002832317227526281,-0.00014225634572324203
178.0,-0.007201013311024023,0.002688527828039985,-0.00033990299936860046
178.5,-0.0066659351819962,0.0032236059570678087,0.00011424507349027833
179.0,-0.006330856831052013,0.0035586843080119956,0.0003409531258098701
179.5,-0.0063149643607579775,0.003574576778306031,0.0002208828279009786
180.0,-0.006285869632937438,0.0036036715061265705,8.654066383701267e-05
180.5,-0.0059228443326057615,0.003966696806458247,0.00025909382948435464
181.0,-0.005832377439879074,0.004057163699184935,0.00013285559761742373
181.5,-0.005237705997816423,0.004651835141247586,0.0004857885788964386
182.0,-0.005151220223893543,0.004738320915170465,0.00030712329209364817
182.5,-0.004706757401451931,0.005182783737612077,0.0004650763076767487
183.0,-0.00437605337791349,0.0055134877611505186,0.0004903981627806869
183.5,-0.004026679955982916,0.005862861183081092,0.00051842218095905
184.0,-0.003977779322931729,0.0059117618161322796,0.0002333029178611624
184.5,-0.003539336784362945,0.006350204354701064,0.0003287033094414738
185.0,-0.003248314563002404,0.006641226576061605,0.0002716085884271668
185.5,-0.003260547996741512,0.006628993142322496,-8.963307337542855e-05
186.0,-0.0029169299224641007,0.006972611216599908,-9.156726729604887e-05
186.5,-0.00280316750632146,0.0070863736327425484,-0.00031546957711552515
187.0,-0.002656519449913576,0.007233021689150432,-0.0004941669053088555
187.5,-0.002439226954088417,0.007450314184975592,-0.0005855547307013782
188.0,-0.00219273400960217,0.007696807129461839,-0.0006269032344396012
188.5,-0.002089783962995968,0.00779975717606804,-0.0007870366307764975
189.0,-0.002067174690010178,0.00782236644905383,-0.0009991655469172578
189.5,-0.0018717280921142947,0.008017813046949714,-0.0010069258990449467
190.0,-0.001727456903185012,0.008162084235878997,-0.0010316052865662444
190.5,-0.0014834186131265899,0.008406122525937419,-0.0009200451179927505
191.0,-0.0014369441293921091,0.0084525970096719,-0.0009679049174067741
191.5,-0.0014449325551250684,0.00844460858393894,-0.001030979469370896
192.0,-0.0013838530443909525,0.008505688094673057,-0.0009852095023949754
192.5,-0.0014275365908632247,0.008462004548200784,-0.0010044689570485373
193.0,-0.0014977809644996587,0.00839176017456435,-0.0010111526644698363
193.5,-0.0012836598578021554,0.008605881281261853,-0.0006954564852605337
194.0,-0.0014620274444485106,0.008427513694615498,-0.0007358424201511869
194.5,-0.0013222468583271678,0.008567294280736841,-0.00042371876307816143
195.0,-0.0012722968763588965,0.008617244262705112,-0.00016949132492198767
195.5,-0.001289320657808708,0.0086002204812553,4.6948565981703994e-05
196.0,-0.0013884169709347848,0.008501124168129225,0.00020749696604494515
196.5,-0.0016562270565820046,0.008233314082482004,0.00022231611364624017
197.0,-0.002021964782709998,0.00786757635635401,0.00015886970173569805
197.5,-0.0023493493917526383,0.007540191747311371,0.00015005370270584906
198.0,-0.0021991300589748078,0.0076904110800892,0.0006317320922851911
198.5,-0.0031455487187531136,0.0067439924203108945,2.6329797375239904e-05
199.0,-0.003484795671125396,0.006404745467938613,3.4427373944319155e-05
199.5,-0.003670591266579092,0.0062189498724849164,0.0001992233810547625
200.0,-0.0038748598777151857,0.006014681261348823,0.0003458977511055922
200.5,-0.004159932216992706,0.005729608922071303,0.0004094398408283203
201.0,-0.00449905666301348,0.005390484476050529,0.00041416046237135323
201.5,-0.004762220260803078,0.0051273208782609304,0.00048788738611024035
202.0,-0.004974704578113404,0.004914836560950604,0.0006034194586261865
202.5,-0.005062410015218367,0.004827131123845641,0.0008332062026913251
203.0,-0.0053759372271624285,0.00451360391190158,0.0008252648127937239
203.5,-0.005331609629943111,0.004557931509120898,0.0011621512249203828
204.0,-0.005423090976603474,0.004466450162460535,0.0013493319733690412
204.5,-0.005107245069009715,0.004782296070054293,0.001929310489175913
205.0,-0.005246020254285592,0.004643520884778416,0.0020397259091468486
205.5,-0.005392405631588778,0.0044971355074752304,0.002127378164733515
206.0,-0.005481680864145365,0.004407860274918644,0.0022569581107461903
206.5,-0.0054924305139819225,0.004397110625082086,0.002450012378090553
207.0,-0.005371274844190356,0.004518266294873652,0.002760191544418413
207.5,-0.005493403107668494,0.004396138031395515,0.0028126960733740325
208.0,-0.00538840254634715,0.004501138592716858,0.0030784271958696034
208.5,-0.005319316676680784,0.004570224462383225,0.0032949094825228836
209.0,-0.005295723428745515,0.004593817710318493,0.0034531947942466447
209.5,-0.005340086971421529,0.004549454167642479,0.00353149396609087
210.0,-0.005334438407389859,0.004555102731674149,0.003648481166681194
210.5,-0.005477063416573408,0.004412477722490601,0.0036065929254588676
211.0,-0.005046758470156335,0.0048427826689076735,0.0041277602280821125
211.5,-0.005129123497480638,0.004760417641583371,0.004127105779037717
212.0,-0.005111711130976105,0.004777830008087904,0.004217786253708236
212.5,-0.00491047069140651,0.004979070447657498,0.004484541298039739
213.0,-0.005019540589988631,0.004870000549075377,0.004433895499263372
213.5,-0.004911878736448402,0.0049776624026156065,0.004593523624203432
214.0,-0.004669140017804823,0.005220401121259185,0.004882369936925649
214.5,-0.004744919507672282,0.0051446216313917265,0.004847402808091563
215.0,-0.00413452749458508,0.005755013644478928,0.005493838399233932
215.5,-0.004425174441440988,0.00546436669762302,0.0052349551843831705
216.0,-0.004566495522465168,0.005323045616598841,0.0051215695425517556
216.5,-0.004395189362080109,0.0054943517769839,0.0053173976839302715
217.0,-0.004524525377574916,0.005365015761489092,0.005209549403857966
217.5,-0.004252940233656534,0.005636600905407474,0.0054999330620475965
218.0,-0.004188851121778851,0.005700690017285157,0.005580443989799284
218.5,-0.004156405748891221,0.005733135390172788,0.005627216366366912
219.0,-0.0037065029132864816,0.006183038225777527,0.006089604622592794
219.5,-0.0038331953374219274,0.006056345801642081,0.005973782647314203
220.0,-0.0039112602767964015,0.005978280862267607,0.005905175231838418
