wavelength,absorbance,absorbance_bk,residual_3gauss,Gauss_1,Gauss_2,Gauss_3,Gauss_4,Gauss_fit
117.0,0.18674865423015247,0.19562340983399304,-0.0011609737446743873,1.4725397611786836e-07,6.305796653874662e-50,0.1967842363246913,1.7876051799749533e-62,0.19678438357866743
117.5,0.18469945036915084,0.1935742059729914,-0.0012140294360037662,2.791274110533335e-07,2.7297193810861124e-48,0.19478795628158413,3.5043881338568885e-61,0.19478823540899518
118.0,0.18060687341924656,0.18948162902308713,-0.0030788259070925472,5.185794873757473e-07,1.0727340366696384e-46,0.1925599363506923,6.487095269743336e-60,0.19256045493017968
118.5,0.18170913408528416,0.19058388968912474,0.0004678392683097887,9.447051047101236e-07,3.8348509021971465e-45,0.19011510571571025,1.1352117936751365e-58,0.19011605042081495
119.0,0.1814634690825904,0.19033822468643097,0.0028678999749763567,1.6882292279321882e-06,1.2495475563417175e-43,0.18746863648222667,1.880060932726534e-57,0.1874703247114546
119.5,0.1782462440361016,0.18712099963994216,0.0024822025849492724,2.960755266576237e-06,3.718349635656305e-42,0.18463583629972632,2.9498799108598686e-56,0.1846387970549929
120.0,0.17658598610082243,0.185460741704663,0.003823596077513758,5.097848926409574e-06,1.0124330210634878e-40,0.18163204777822284,4.3896761652125234e-55,0.18163714562714925
120.5,0.1724862433912296,0.18136099899507016,0.0028798229114207763,8.621006819933486e-06,2.5270121637346614e-39,0.17847255507682946,6.20160901935454e-54,0.17848117608364938
121.0,0.17092529363131895,0.17980004923515952,0.004613226636775075,1.432467366743711e-05,5.79243184900147e-38,0.175172497924717,8.326413762161774e-53,0.17518682259838445
121.5,0.16707358737207115,0.17594834297591172,0.004178154246026744,2.3395502676573162e-05,1.2215085719676664e-36,0.1717467932272084,1.0634607052347978e-51,0.17177018872988498
122.0,0.16315635074758475,0.17203110635142532,0.0037834702198640546,3.757181984596102e-05,2.373918404242094e-35,0.1682100643117153,1.2933419271513162e-50,0.16824763613156127
122.5,0.15896468024361737,0.16783943584745795,0.0032035065483942138,5.935151890558079e-05,4.258956260898386e-34,0.16457657778015816,1.4991428181301274e-49,0.16463592929906373
123.0,0.1542581258651519,0.16313288146899246,0.0021804375132657428,9.225609925883652e-05,7.065230506692602e-33,0.16086018785646788,1.6577179131211327e-48,0.16095244395572672
123.5,0.14942934456222912,0.1583041001660697,0.0010886551540895961,0.00014115696227554403,1.0855167475054137e-31,0.15707428804970455,1.7502803473327717e-47,0.1572154450119801
124.0,0.14461697809774268,0.15349173370158326,4.729669411202009e-05,0.00021266711248680315,1.5471025163993174e-30,0.15323176989498444,1.7661059465349972e-46,0.15344443700747123
124.5,0.14047187159612734,0.1493466271999679,-0.00031395812687551317,0.0003155968414422219,2.0485371107105654e-29,0.1493449884854012,1.704560565002634e-45,0.14966058532684343
125.0,0.13552241041028235,0.14439716601412292,-0.0014900341461351607,0.0004614656921949101,2.5238610386227803e-28,0.14542573446806317,1.5749286700454443e-44,0.14588720016025808
125.5,0.13076433376291544,0.139639089366756,-0.0025111778551628883,0.0006650550762949759,2.8975026797636138e-27,0.14148521214562393,1.3941848508335172e-43,0.1421502672219189
126.0,0.1265374105220745,0.13541216612591508,-0.003066833809925701,0.0009449766351106982,3.1041638702629406e-26,0.13753402330073008,1.1834266037032208e-42,0.13847899993584079
126.5,0.12227032492052292,0.1311450805243635,-0.0037612971775418114,0.0013242213579241226,3.1077023016042453e-25,0.13358215634398118,9.639770611872511e-42,0.1349063777019053
127.0,0.11845726307767898,0.12733201868151955,-0.00413760610877395,0.0018306444146642374,2.9114283523781435e-24,0.12963898037562926,7.541052976297112e-41,0.1314696247902935
127.5,0.11535915709091328,0.12423391269475384,-0.003976662747478404,0.0024973316955284827,2.555814867462854e-23,0.12571324374670376,5.6697710197249895e-40,0.12821057544223224
128.0,0.11215883546727952,0.12103359107112008,-0.004142273041356531,0.0033627874066537457,2.1051399267616396e-22,0.12181307670582286,4.100044536445943e-39,0.1251758641124766
128.5,0.10989113321559356,0.11876588881943412,-0.003650987945460746,0.0044708790418382886,1.6289955897885964e-21,0.11794599772305657,2.8537478330286724e-38,0.12241687676489486
129.0,0.10729719931276732,0.11617195491660788,-0.003817446013847134,0.005870477839315232,1.1857495611153039e-20,0.11411892309113979,1.913173418413056e-37,0.11998940093045501
129.5,0.1062832661554371,0.11515802175927765,-0.002794898049368222,0.00761474039206492,8.128958652194006e-20,0.11033817941658096,1.2362492544957706e-36,0.11795291980864588
130.0,0.1052884689454058,0.11416322454924636,-0.0022062850247380195,0.009759990945843329,5.254952345679336e-19,0.10660951862814105,7.704874814178251e-36,0.11636950957398438
130.5,0.1050331088935096,0.11390786449735016,-0.0013944547181028583,0.012364184068166263,3.207053514029623e-18,0.10293813514728675,4.6347001746064153e-35,0.11530231921545302
131.0,0.1046915644632885,0.11356632006712906,-0.0012473179436407883,0.015484953126708627,1.8498975930255694e-17,0.09932868488406121,2.692506956933164e-34,0.11481363801076985
131.5,0.10601776632888112,0.11489252193272168,-7.006382452068305e-05,0.01917728001533472,1.0096779298446096e-16,0.09578530574190754,1.5116382321891301e-33,0.11496258575724236
132.0,0.10736999092440104,0.1162447465282416,0.00044225337933967435,0.023490853812943347,5.220243755646526e-16,0.09231163933595805,8.206645802046753e-33,0.11580249314890192
132.5,0.10890675257791044,0.117781508181751,0.0004034364785339972,0.028467218052436093,2.559411756940697e-15,0.08891085365077835,4.310976133445901e-32,0.117378071703217
133.0,0.1115378337393741,0.12041258934321467,0.0006900877450306819,0.03413683521293018,1.1912135719383386e-14,0.08558566638524188,2.1924892805882187e-31,0.11972250159818398
133.5,0.1146446408598593,0.12351939646369986,0.0006648076213751908,0.04051622008844559,5.2685123207697757e-14,0.0823383687538264,1.080203880729422e-30,0.12285458884232467
134.0,0.1189091348033488,0.12778389040718938,0.0010077326287144528,0.047605308243327905,2.216534353106911e-13,0.07917084953492536,5.1585733495531455e-30,0.12677615777847492
134.5,0.12328053564516256,0.13215529124900313,0.0006854422819665695,0.05538522978857239,8.87930293587755e-13,0.07608461917757625,2.3892039660760396e-29,0.13146984896703656
135.0,0.1284588303090911,0.13733358591293168,0.00043610117370349033,0.06381665093770578,3.3901734733034173e-12,0.07308083379813222,1.0737809900360807e-28,0.1368974847392282
135.5,0.13415573646187007,0.14303049206571064,3.134721618644476e-05,0.07283882591943279,1.2348533791273537e-11,0.07016031891774285,4.685450096305902e-28,0.1429991448495242
136.0,0.1407739471606337,0.14964870276447428,-4.436066139454353e-05,0.08236947057299558,4.2949921080704255e-11,0.06732359280992332,1.9860470807254615e-27,0.14969306342586883
136.5,0.14795770074696854,0.1568324563508091,-4.396122318883755e-05,0.09230552808629666,1.4277672912813275e-10,0.06457088934492457,8.18191998229808e-27,0.15687641757399795
137.0,0.1550945631447961,0.16396931874863668,-0.0004577114409340388,0.10252484950153358,4.540324091713341e-10,0.06190218023400473,3.2776961449878743e-26,0.16442703018957072
137.5,0.1632752853737012,0.17215004097754177,-5.591711846997249e-05,0.1128887601216255,1.3823844296376494e-09,0.05931719659200181,1.2774555622666554e-25,0.17220595809601175
138.0,0.17154608762397147,0.18042084322781204,0.00035995795062851443,0.12324543149313724,4.033236096551087e-09,0.05681544975081019,4.84616397549229e-25,0.18006088527718353
138.5,0.18039058670954347,0.18926534231338404,0.0014351488021258352,0.13343393095622125,1.1285579071918546e-08,0.05439625126945788,1.7903292678678464e-24,0.1878301935112582
139.0,0.1882626002164992,0.19713735582033978,0.0017898131159592157,0.14328878029530326,3.0310594893678465e-08,0.05205873209848242,6.443968342367005e-24,0.19534754270438057
139.5,0.1955127076306576,0.20438746323449816,0.0019406994951006729,0.15264482467101698,7.820114969559595e-08,0.049801860867230825,2.260782079330612e-23,0.2024467637393975
140.0,0.20202320112829292,0.2108979567321335,0.0019311066738829374,0.16134219482201517,1.9396364937655241e-07,0.04762446127258601,7.734709589343752e-23,0.20896685005825055
140.5,0.2072047082777509,0.21607946388159147,0.001322631883228259,0.16923114058198893,4.628598687249391e-07,0.04552522855650554,2.5816695954096843e-22,0.2147568319983632
141.0,0.211088098191005,0.21996285379484556,0.00028252313088536485,0.17617652212135007,1.0634749454832972e-06,0.04350274506766465,8.410391387886216e-22,0.2196803306639602
141.5,0.2138013931235368,0.22267614872737737,-0.000943466607179283,0.1820617660620203,2.354363037532668e-06,0.041555494909498836,2.6753125560461076e-21,0.22361961533455665
142.0,0.21580803388474537,0.22468278948858594,-0.0017962388776656402,0.18679212492758018,5.025755591954459e-06,0.03968187768307946,8.312963948289111e-21,0.22647902836625158
142.5,0.21710385839158788,0.22597861399542846,-0.002209076997684467,0.19029711780384548,1.0351850690648502e-05,0.03788022133857678,2.5242773281871397e-20,0.22818769099311292
143.0,0.21740771831316272,0.2262824739170033,-0.0024189833865348453,0.1925320746823952,2.0588467492224602e-05,0.03614879415365072,7.493614483222505e-20,0.22870145730353814
143.5,0.21720235048674372,0.2260771060905843,-0.001927028674755915,0.19347875364581726,3.956525855167425e-05,0.03448581586097126,2.175648246446026e-19,0.2280041347653402
144.0,0.21563332640504165,0.22450808200888223,-0.0015999468463528954,0.19314504580170094,7.351510321793256e-05,0.032889467950316234,6.180103144299579e-19,0.22610802885523512
144.5,0.21301918651141785,0.22189394211525842,-0.0011599443207005455,0.19156382494878457,0.0001321583138491267,0.03135790317332525,1.7182086831453365e-18,0.22305388643595897
145.0,0.20929533139923384,0.21817008700307441,-0.000740211382972672,0.18879103509988068,0.00023000900506443342,0.029889254281101972,4.677238632809843e-18,0.2189102983860471
145.5,0.20491314489739068,0.21378790050123125,1.5328699200622964e-05,0.1849031375223243,0.0003877922532335292,0.028481642026472815,1.2470784982617882e-17,0.21377257180203063
146.0,0.199561909171904,0.20843666477574457,0.0006756654905708814,0.1799940588730983,0.0006337579481832562,0.0271331824638921,3.2579386424794737e-17,0.2077609992851737
146.5,0.1930673222266412,0.20194207783048176,0.0009237253696162129,0.1741717929469651,0.0010045659331231421,0.025841993580777198,8.342344401800393e-17,0.20101835246086555
147.0,0.1858304978987577,0.19470525350259826,0.000998916740326039,0.1675548107774738,0.0015453246903012765,0.024606201294496925,2.0944876925941726e-16,0.19370633676227222
147.5,0.17767434866736503,0.1865491042712056,0.0005484020579380189,0.16026842811060005,0.002308329253289934,0.023423944849377067,5.157717554369275e-16,0.1860007022132676
148.0,0.1693381141983799,0.17821286980222048,0.0001281199704032121,0.15244126679222225,0.0033501013916380387,0.022293381647955714,1.2461495077997883e-15,0.17808474983181727
148.5,0.1616907884833426,0.17056554408718316,0.00042440984166988716,0.14420192883041552,0.004726513864738333,0.021212691550356495,2.95498789799737e-15,0.17014113424551328
149.0,0.15421410881522832,0.1630888644190689,0.0007467194926912835,0.13567598040822199,0.006486083843058469,0.020180080675090292,6.879417976633155e-15,0.1623421449263776
149.5,0.147254377229003,0.15612913283284358,0.0012901116338689123,0.12698331954333067,0.0086619169217674,0.01919378473386084,1.572870664029339e-14,0.15483902119897466
150.0,0.14055801785076733,0.1494327734546079,0.001681520587293539,0.11823597693655145,0.011263203998643964,0.01825207193208361,3.532742786210452e-14,0.14775125286731436
150.5,0.13402117346721634,0.14289592907105692,0.0017387850151030504,0.1095363761617646,0.014267522428275982,0.017353245465835294,7.797198812184453e-14,0.14115714405595386
151.0,0.1273559110063325,0.13623066661017308,0.0011435959392176454,0.10097605783044125,0.017615367195470136,0.016495645644874886,1.6916100467551798e-13,0.13508707067095543
151.5,0.12109854760476144,0.129973303208602,0.0004525424355037999,0.09263485354790749,0.021208255554606474,0.015677651670223385,3.6084614370853496e-13,0.1295207607730982
152.0,0.11575617014801697,0.12463092575185752,0.0002413860178612226,0.08458047992120826,0.024911376718449597,0.014897683093581401,7.570539587838818e-13,0.1243895397339963
152.5,0.1099690129352522,0.11884376853909276,-0.0007400738447978228,0.07686851086653425,0.028561130531170594,0.014154200984623175,1.5625541452964077e-12,0.11958384238389058
153.0,0.10525284106439088,0.11412759666823144,-0.0008379071664762761,0.06954267804333664,0.03197711695726396,0.013445708830933425,3.1736942843607963e-12,0.11496550383470772
153.5,0.10035299516804252,0.10922775077188308,-0.0011557986060452968,0.06263544425560812,0.03497735192189648,0.01277075319407876,6.3450201164256885e-12,0.11038354937792838
154.0,0.09576362979842616,0.10463838540226672,-0.001053191007409679,0.056168792793050516,0.03739485946010995,0.012127924144026222,1.2489723185633248e-11,0.1056915764096764
154.5,0.0905475907007052,0.09942234630454576,-0.0013421497906017654,0.050155176509239854,0.039093464068842426,0.011515855492852917,2.421232147394997e-11,0.10076449609514752
155.0,0.08547535714978631,0.09435011275362687,-0.0011623433513284487,0.044598573457093976,0.03998065775418196,0.010933224847441941,4.623743466580384e-11,0.09551245610495532
155.5,0.07989103994395205,0.08876579554779261,-0.0011243977544057593,0.03949560060452764,0.040015839111033805,0.01037875349963425,8.700267063232822e-11,0.08989019330219837
156.0,0.0744017614987459,0.08327651710258646,-0.0006242644940349373,0.034836643024170534,0.039212932239992955,0.009851206171111652,1.6134626179737817e-10,0.0839007815966214
156.5,0.0684891648407203,0.07736392044456086,-0.00022968134737032242,0.030606962514804992,0.0376372483530296,0.009349390629127385,2.9496922153691073e-10,0.07759360179193119
157.0,0.06272103689359178,0.07159579249743234,0.0005385918301348547,0.026787756448064592,0.03539728649942572,0.008872157188080931,5.317262359239074e-10,0.07105720066729748
157.5,0.05688628798731886,0.06576104359115942,0.0013526684979000142,0.023357144388308465,0.03263283164874369,0.008418398110855678,9.45351578823215e-10,0.0644083750932594
158.0,0.05059331311369739,0.05946806871753795,0.0016888582184365342,0.02029106642568842,0.02950109549258389,0.007987046922804475,1.6580246328734331e-09,0.05777921049910142
158.5,0.04432063419973538,0.05319538980357594,0.001891506838788956,0.017564082984510433,0.02616271946068361,0.00757707765028155,2.8693113883466038e-09,0.05130388296478698
159.0,0.03872237533487865,0.04759713093871921,0.002490304040745628,0.015150070982255568,0.022769247020450467,0.007187503994676574,4.900590966139564e-09,0.04510682689797358
159.5,0.032597896781394166,0.041472652385234725,0.0021792001919578585,0.013022815542150365,0.01945324993689435,0.006817378452015192,8.26221695646067e-09,0.039293452193276866
160.0,0.026498610412669824,0.03537336601651039,0.0014292968110929602,0.011156499979628367,0.016321764084929868,0.006465791387343109,1.3753516084344318e-08,0.033944069205417426
160.5,0.020973314481225983,0.02984807008506654,0.0007369185931130201,0.009526099508785054,0.013453159301411726,0.006131870072311707,2.2609445033692225e-08,0.02911115149195352
161.0,0.015916873580734445,0.024791629184575004,-2.7991205191053165e-05,0.00810768609976274,0.0108971198839099,0.005814777693631998,3.671246141590915e-08,0.024819620389766057
161.5,0.011080064110005025,0.019954819713845585,-0.0011147057553386984,0.006878653235408165,0.008677101000374377,0.0055137123393543905,5.88940473511073e-08,0.021069525469184284
162.0,0.006906571376150938,0.0157813269799915,-0.0020590120914095074,0.005817870053131058,0.006794469691559944,0.005227905969271659,9.335743834607054e-08,0.017840339071401007
162.5,0.003611391656559392,0.012486147260399953,-0.002609922170868823,0.004905774609754161,0.0052335251849317905,0.004956623375120917,1.4626146190753635e-07,0.015096069431268776
163.0,0.000627578371681548,0.00950233397552211,-0.003288158588113441,0.0041244158679835715,0.003966689045100278,0.004699161135683816,2.2651486788583133e-07,0.01279049256363555
163.5,-0.0018224910205597968,0.007052264583280764,-0.003819701346150269,0.0034574535634201327,0.002959318953801324,0.004454846571346338,3.468408632391435e-07,0.010871965929431033
164.0,-0.0036866374871288975,0.005188118116711663,-0.004099357143696561,0.002890124453782864,0.0021737889221762102,0.004223036702179408,5.25182269741335e-07,0.009287475260408224
164.5,-0.004876409473488788,0.003998346130351773,-0.0039873997204234925,0.002409182650574211,0.0015726594589800648,0.004003117213140632,7.865280803571848e-07,0.007985745850775265
165.0,-0.006225344061604368,0.0026494115422361925,-0.004269986872939292,0.0020028208503106576,0.00112091088409701,0.003794501429568701,1.1652511991158252e-06,0.0069193984151754845
165.5,-0.007148368789754761,0.0017263868140857995,-0.004319849407800585,0.0016605783691174868,0.0007873204934966753,0.003596629305748797,1.7080535234247045e-06,0.006046236221886384
166.0,-0.007776331087867035,0.0010984245159735258,-0.004231388899873145,0.001373240981564505,0.0005451283886104924,0.0034089664289644094,2.4776167072637224e-06,0.0053298134158466706
166.5,-0.008245317887562718,0.0006294377162778426,-0.0041100221366207265,0.0011327367027212786,0.0003721630559136193,0.003231003041118349,3.557053145322311e-06,0.004739459852898569
167.0,-0.008311993983179779,0.0005627616206607816,-0.003687172994806913,0.0009320308531996879,0.0002505954425417152,0.0030622530797014412,5.055240024849993e-06,0.0042499346154676945
167.5,-0.008656271479732889,0.00021848412410767175,-0.0036223747067728627,0.0007650230243862657,0.0001664694690984995,0.0029022532396086012,7.113097787168135e-06,0.0038408588308805345
168.0,-0.00887475560384056,0.0,-0.003496047636656828,0.0006264479226959708,0.00010912681562544323,0.0027505620570492666,9.91084128614702e-06,0.003496047636656828
168.5,-0.008740696494333284,0.00013405910950727712,-0.0030687691552765788,0.0005117815199027167,7.061154233039939e-05,0.002606759016568489,1.3676185982251251e-05,0.003202828264783856
169.0,-0.008515853522715939,0.00035890208112462213,-0.002592498943108634,0.0004171534698733032,4.511044041412492e-05,0.0024704436819867064,1.8693431959121838e-05,0.0029514010242332562
169.5,-0.008777888984312957,9.686661952760384e-05,-0.0026374084324574747,0.00033926636590828285,2.8460558628526797e-05,0.002341234851877982,2.531327557028717e-05,0.0027342750519850786
170.0,-0.008752191003508741,0.00012256460033181933,-0.002423227372957921,0.0002753221009691328,1.773701887643881e-05,0.0022187697400365275,3.3963113407641344e-05,0.0025457919732897404
170.5,-0.00849758996691325,0.00037716563692731,-0.002004572161027089,0.00022295534774262638,1.092176035728093e-05,0.0021027031812297634,4.5157508624727806e-05,0.002381737797954399
171.0,-0.008403850105359571,0.00047090549848098975,-0.0017681300663658578,0.0001801739885808514,6.646324411005953e-06,0.0019927068623996754,5.950838945531489e-05,0.0022390355648468476
171.5,-0.008029688618842658,0.0008450669849979029,-0.0012704402760774225,0.00014530618859154266,3.9980436579780714e-06,0.0018884685793534954,7.773444947230921e-05,0.0021155072610753254
172.0,-0.008224312949696028,0.000650442654144533,-0.0013592495759038661,0.00011695371053643693,2.3778751672109056e-06,0.0017896915188771935,0.00010066912546755804,0.002009692230048399
172.5,-0.007528009482248426,0.001346746121592135,-0.0005739635340136239,9.395101024452323e-05,1.3986296777505851e-06,0.0016960935661107291,0.00012926644957275606,0.001920709655605759
173.0,-0.007346230864585927,0.001528524739254634,-0.00031962926858822033,7.532961916092922e-05,8.13735952256559e-07,0.0016074066369409596,0.00016460401578870888,0.0018481540078428543
173.5,-0.007191762843162831,0.0016829927606777295,-0.00010902126901497951,6.0287310397996864e-05,4.6840826634366033e-07,0.0015233760350955785,0.00020788227593279004,0.001792014029692709
