wavelength,absorbance,absorbance_bk,residual_3gauss
117.0,0.18674865423015247,0.19562340983399304,-0.0011609737450509472
117.5,0.18469945036915084,0.1935742059729914,-0.0012140294363765236
118.0,0.18060687341924656,0.18948162902308713,-0.0030788259074611135
118.5,0.18170913408528416,0.19058388968912474,0.0004678392679458021
119.0,0.1814634690825904,0.19033822468643097,0.002867899974617255
119.5,0.1782462440361016,0.18712099963994216,0.0024822025845952778
120.0,0.17658598610082243,0.185460741704663,0.003823596077165037
120.5,0.1724862433912296,0.18136099899507016,0.002879822911077301
121.0,0.17092529363131895,0.17980004923515952,0.004613226636436735
121.5,0.16707358737207115,0.17594834297591172,0.004178154245693094
122.0,0.16315635074758475,0.17203110635142532,0.0037834702195343184
122.5,0.15896468024361737,0.16783943584745795,0.003203506548067253
123.0,0.1542581258651519,0.16313288146899246,0.002180437512939837
123.5,0.14942934456222912,0.1583041001660697,0.0010886551537621914
124.0,0.14461697809774268,0.15349173370158326,4.7296693779674825e-05
124.5,0.14047187159612734,0.1493466271999679,-0.0003139581272173786
125.0,0.13552241041028235,0.14439716601412292,-0.0014900341464926248
125.5,0.13076433376291544,0.139639089366756,-0.002511177855543667
126.0,0.1265374105220745,0.13541216612591508,-0.003066833810339481
126.5,0.12227032492052292,0.1311450805243635,-0.0037612971780005
127.0,0.11845726307767898,0.12733201868151955,-0.004137606109291786
127.5,0.11535915709091328,0.12423391269475384,-0.003976662748072096
128.0,0.11215883546727952,0.12103359107112008,-0.004142273042045286
128.5,0.10989113321559356,0.11876588881943412,-0.003650987946266046
129.0,0.10729719931276732,0.11617195491660788,-0.003817446014792447
129.5,0.1062832661554371,0.11515802175927765,-0.0027948980504783616
130.0,0.1052884689454058,0.11416322454924636,-0.0022062850260384376
130.5,0.1050331088935096,0.11390786449735016,-0.0013944547196185486
131.0,0.1046915644632885,0.11356632006712906,-0.001247317945395135
131.5,0.10601776632888112,0.11489252193272168,-7.00638265339476e-05
132.0,0.10736999092440104,0.1162447465282416,0.0004422533770518655
132.5,0.10890675257791044,0.117781508181751,0.0004034364759623321
133.0,0.1115378337393741,0.12041258934321467,0.0006900877421738005
133.5,0.1146446408598593,0.12351939646369986,0.0006648076182411422
134.0,0.1189091348033488,0.12778389040718938,0.0010077326253221386
134.5,0.12328053564516256,0.13215529124900313,0.0006854422783467429
135.0,0.1284588303090911,0.13733358591293168,0.0004361011698992556
135.5,0.13415573646187007,0.14303049206571064,3.1347212253535206e-05
136.0,0.1407739471606337,0.14964870276447428,-4.436066538826555e-05
136.5,0.14795770074696854,0.1568324563508091,-4.3961227164268646e-05
137.0,0.1550945631447961,0.16396931874863668,-0.00045771144480241666
137.5,0.1632752853737012,0.17215004097754177,-5.591712213492972e-05
138.0,0.17154608762397147,0.18042084322781204,0.00035995794726853547
138.5,0.18039058670954347,0.18926534231338404,0.001435148799174446
139.0,0.1882626002164992,0.19713735582033978,0.0017898131135191397
139.5,0.1955127076306576,0.20438746323449816,0.0019406994932702482
140.0,0.20202320112829292,0.2108979567321335,0.0019311066727527304
140.5,0.2072047082777509,0.21607946388159147,0.001322631882877734
141.0,0.211088098191005,0.21996285379484556,0.00028252313137924756
141.5,0.2138013931235368,0.22267614872737737,-0.0009434666057944463
142.0,0.21580803388474537,0.22468278948858594,-0.0017962388753652303
142.5,0.21710385839158788,0.22597861399542846,-0.002209076994470205
143.0,0.21740771831316272,0.2262824739170033,-0.0024189833824398987
143.5,0.21720235048674372,0.2260771060905843,-0.0019270286698507277
144.0,0.21563332640504165,0.22450808200888223,-0.001599946840752181
144.5,0.21301918651141785,0.22189394211525842,-0.001159944314570227
145.0,0.20929533139923384,0.21817008700307441,-0.0007402113765362095
145.5,0.20491314489739068,0.21378790050123125,1.5328705659234387e-05
146.0,0.199561909171904,0.20843666477574457,0.000675665496709027
146.5,0.1930673222266412,0.20194207783048176,0.0009237253750431218
147.0,0.1858304978987577,0.19470525350259826,0.0009989167446235736
147.5,0.17767434866736503,0.1865491042712056,0.0005484020606935092
148.0,0.1693381141983799,0.17821286980222048,0.00012811997125283803
148.5,0.1616907884833426,0.17056554408718316,0.0004244098403490826
149.0,0.15421410881522832,0.1630888644190689,0.0007467194890853901
149.5,0.147254377229003,0.15612913283284358,0.0012901116280552294
150.0,0.14055801785076733,0.1494327734546079,0.0016815205795649435
150.5,0.13402117346721634,0.14289592907105692,0.0017387850059656929
151.0,0.1273559110063325,0.13623066661017308,0.0011435959293570053
151.5,0.12109854760476144,0.129973303208602,0.00045254242572093095
152.0,0.11575617014801697,0.12463092575185752,0.00024138600898451767
152.5,0.1099690129352522,0.11884376853909276,-0.0007400738520117328
153.0,0.10525284106439088,0.11412759666823144,-0.0008379071714385983
153.5,0.10035299516804252,0.10922775077188308,-0.0011557986084111682
154.0,0.09576362979842616,0.10463838540226672,-0.001053191007121826
154.5,0.0905475907007052,0.09942234630454576,-0.0013421497878945143
155.0,0.08547535714978631,0.09435011275362687,-0.0011623433466911443
155.5,0.07989103994395205,0.08876579554779261,-0.0011243977485129453
156.0,0.0744017614987459,0.08327651710258646,-0.0006242644876551795
156.5,0.0684891648407203,0.07736392044456086,-0.0002296813412688975
157.0,0.06272103689359178,0.07159579249743234,0.0005385918352844438
157.5,0.05688628798731886,0.06576104359115942,0.0013526685015835815
158.0,0.05059331311369739,0.05946806871753795,0.001688858220338721
158.5,0.04432063419973538,0.05319538980357594,0.0018915068388024453
159.0,0.03872237533487865,0.04759713093871921,0.002490304038953492
159.5,0.032597896781394166,0.041472652385234725,0.0021792001885957077
160.0,0.026498610412669824,0.03537336601651039,0.001429296806499461
160.5,0.020973314481225983,0.02984807008506654,0.0007369185876775937
161.0,0.015916873580734445,0.024791629184575004,-2.799121107595684e-05
161.5,0.011080064110005025,0.019954819713845585,-0.0011147057613156916
162.0,0.006906571376150938,0.0157813269799915,-0.0020590120971820183
162.5,0.003611391656559392,0.012486147260399953,-0.002609922176214391
163.0,0.000627578371681548,0.00950233397552211,-0.0032881585928859775
163.5,-0.0018224910205597968,0.007052264583280764,-0.0038197013502738577
164.0,-0.0036866374871288975,0.005188118116711663,-0.004099357147153945
164.5,-0.004876409473488788,0.003998346130351773,-0.0039873997232418995
165.0,-0.006225344061604368,0.0026494115422361925,-0.004269986875176084
165.5,-0.007148368789754761,0.0017263868140857995,-0.004319849409530296
166.0,-0.007776331087867035,0.0010984245159735258,-0.004231388901176885
166.5,-0.008245317887562718,0.0006294377162778426,-0.004110022137578332
167.0,-0.008311993983179779,0.0005627616206607816,-0.003687172995491727
167.5,-0.008656271479732889,0.00021848412410767175,-0.003622374707248807
168.0,-0.00887475560384056,0.0,-0.003496047636977252
168.5,-0.008740696494333284,0.00013405910950727712,-0.003068769155484383
169.0,-0.008515853522715939,0.00035890208112462213,-0.0025924989432371797
169.5,-0.008777888984312957,9.686661952760384e-05,-0.0026374084325319173
170.0,-0.008752191003508741,0.00012256460033181933,-0.002423227372996677
170.5,-0.00849758996691325,0.00037716563692731,-0.002004572161043253
171.0,-0.008403850105359571,0.00047090549848098975,-0.0017681300663684703
171.5,-0.008029688618842658,0.0008450669849979029,-0.0012704402760725275
172.0,-0.008224312949696028,0.000650442654144533,-0.0013592495758953617
172.5,-0.007528009482248426,0.001346746121592135,-0.000573963534003916
173.0,-0.007346230864585927,0.001528524739254634,-0.00031962926857871015
173.5,-0.007191762843162831,0.0016829927606777295,-0.00010902126900641084
174.0,-0.0073562766601804035,0.0015184789436601571,-0.00023412865436900463
174.5,-0.006931442166359587,0.0019433134374809737,0.00021278701149712517
175.0,-0.006610023275805328,0.002264732328035233,0.0005381463228236278
175.5,-0.006521410827027411,0.0023533447768131497,0.000611567372416326
176.0,-0.006036238309261094,0.0028385172945794663,0.001061298732150615
176.5,-0.006171178904815835,0.0027035766990247253,0.0008694731231849943
177.0,-0.005983907135021652,0.0028908484688189087,0.0009771992553991144
177.5,-0.0056147618859253715,0.003259993717915189,0.0012429551939742859
178.0,-0.005593667658055928,0.0032810879457846323,0.0011357259923382864
178.5,-0.005185720932216276,0.0036890346716242847,0.0013894778065075015
179.0,-0.004992002404051315,0.003882753199789246,0.0014024064419096462
179.5,-0.005045899570914618,0.0038288560329259426,0.0011406742283036758
180.0,-0.004874494072158025,0.004000261531682535,0.0010770789628207567
180.5,-0.004602111078944016,0.0042726445248965446,0.0010875556238602421
181.0,-0.004380714284109952,0.004494041319730609,0.0010208252650971425
181.5,-0.004306499854186445,0.004568255749654116,0.0007818357559489205
182.0,-0.004015832837108335,0.004858922766732225,0.0007358490798383601
182.5,-0.0039473101232105606,0.00492744548063,0.0004463895765875834
183.0,-0.0038656879668305367,0.005009067637010024,0.000151313976662148
183.5,-0.0031715276201969966,0.005703227983643564,0.0004531489780190334
184.0,-0.0030946074555135974,0.005780148148326963,0.00012564779543328217
184.5,-0.0029639558314596337,0.005910799772380927,-0.00015628823265612362
185.0,-0.0029317687162452484,0.005942986887595312,-0.0005405861090604456
185.5,-0.0025381729442393104,0.006336582659601251,-0.0005628351876647017
186.0,-0.002278728547644066,0.0065960270561964945,-0.0007138702911713537
186.5,-0.002260349302363149,0.006614406301477412,-0.0010957807927386648
187.0,-0.002166240352233257,0.0067085152516073035,-0.001386941927436794
187.5,-0.0020117010575984163,0.006863054546242144,-0.0015979136707648164
188.0,-0.0017038947509457271,0.007170860852894834,-0.0016313059616895036
188.5,-0.0016433590198988433,0.007231396583941717,-0.0018833810060735045
189.0,-0.0015055060510579992,0.0073692495527825615,-0.0020256394451240176
189.5,-0.001078917370239279,0.007795838233601282,-0.0018431922175554168
190.0,-0.0010296477374246132,0.007845107866415948,-0.001999130702023769
190.5,-0.0007970513909764751,0.008077704212864086,-0.0019304065734159336
191.0,-0.0008720654865305102,0.00800269011731005,-0.002126154923488263
191.5,-0.0005045772619287433,0.008370178341911817,-0.0018350863814705874
192.0,-0.0005595469906374261,0.008315208613203135,-0.0019216200109722602
192.5,-0.0003391063079265511,0.00853564929591401,-0.0016879767795399282
193.0,-0.000281160781654998,0.008593594822185562,-0.0015727631513670678
193.5,-0.0002365672195335437,0.008638188384307017,-0.0014281163912410466
194.0,-3.989166959453638e-05,0.008834863934246024,-0.0010904189871564305
194.5,-0.0001590389906977946,0.008715716613142766,-0.001029874800330578
195.0,0.0001444420391222668,0.009019197642962827,-0.0005107528440838685
195.5,0.00014359704963995,0.009018352653480511,-0.0002630817721899978
196.0,0.0002634585310912932,0.009138214134931854,0.00013481351979558777
196.5,-9.849521330190892e-06,0.00886490608251037,0.00016548918761251884
197.0,-0.00029219241830188454,0.008582563185538676,0.00020937402229679984
197.5,-0.00013985151633346852,0.008734904087507092,0.0007064130550136129
198.0,-0.00031403534122013786,0.008560720262620423,0.0008916231383256741
198.5,-0.0004948970119722564,0.008379858591868305,0.0010811372372096228
199.0,-0.000673765792484026,0.008200989811356535,0.0012800285149900696
199.5,-0.0009043500187476538,0.007970405585092906,0.0014311561508927942
200.0,-0.0010407342866579632,0.007834021317182598,0.0016772094597365629
200.5,-0.0015368731932605057,0.007337882410580055,0.0015612477368404914
201.0,-0.0014800761459557357,0.007394679457884825,0.001993241271127412
201.5,-0.0018855526743006088,0.006989202929539952,0.00195554426562958
202.0,-0.0019164326279137312,0.006958322975926829,0.0022828856422671137
202.5,-0.002521744649583924,0.0063530109542566365,0.0020243948559885245
203.0,-0.0025584085036697937,0.0063163471001707674,0.0023216077722237986
203.5,-0.0025078265783131833,0.006366929025527377,0.00269186800925327
204.0,-0.002615051905338569,0.006259703698501992,0.002889147175532539
204.5,-0.002417287834125284,0.0064574677697152765,0.003375529663550591
205.0,-0.002536702952339491,0.0063380526515010695,0.003528379202542975
205.5,-0.00283264047580783,0.006042115128032731,0.0034881087174788964
206.0,-0.0027311606261149575,0.006143594977725603,0.0038286157011157545
206.5,-0.0030984845794182463,0.005776271024422314,0.0036838151819871437
207.0,-0.0027945365135122135,0.006080219090328347,0.004194074357976969
207.5,-0.002979429798708522,0.005895325805132039,0.00419970337005789
208.0,-0.0027195380292954377,0.006155217574545123,0.004634861959621163
208.5,-0.002777854505045985,0.006096901098794576,0.0047371787597743535
209.0,-0.002446663636557249,0.006428091967283311,0.005215060028492937
209.5,-0.002812050578767117,0.006062705025073443,0.004983161727003601
210.0,-0.0027092515309635697,0.006165504072876991,0.005207022644680349
210.5,-0.0026490846455213286,0.006225670958319232,0.0053766187066280275
211.0,-0.0025873025278188287,0.0062874530760217325,0.005536997506363127
211.5,-0.002626848697273348,0.006247906906567213,0.005586010672940079
212.0,-0.002777087025988476,0.006097668577852084,0.005515074997714056
212.5,-0.0024525685994194473,0.006422187004421114,0.005910397788142438
213.0,-0.002571532109835517,0.006303223494005044,0.005854470227038067
213.5,-0.002767857964904751,0.00610689763893581,0.005714108428177815
214.0,-0.00259614900347806,0.0062786066003625,0.00593536915939262
214.5,-0.0024499774908890545,0.006424778112951507,0.006125300419166998
215.0,-0.0021021038374530445,0.006772651766387516,0.006511721280926299
215.5,-0.0023489680825748687,0.006525787521265692,0.006298729823576154
216.0,-0.0023314818169945417,0.006543273786846019,0.006345911342702284
216.5,-0.0022369118576155505,0.00663784374622501,0.006466455403045718
217.0,-0.00244507484267042,0.006429680761170141,0.006280962449216273
217.5,-0.002236262945898628,0.006638492657941933,0.00650951967132945
218.0,-0.0019556056596741382,0.0069191499441664224,0.0068073410821442885
218.5,-0.00223645380633622,0.006638301797504341,0.006541385564235242
219.0,-0.0019842258641423575,0.006890529739698203,0.006806512729634624
219.5,-0.0019045904396056252,0.006970165164234935,0.006897302699653273
220.0,-0.001920681232909976,0.006954074370930584,0.006890843407630067
