wavelength,absorbance,absorbance_bk,residual_3gauss,Gauss_1,Gauss_2,Gauss_3,Gauss_4,Gauss_fit
117.0,0.5379610697169124,0.5440862690654651,-0.01291538551367366,8.493772268066834e-07,2.729767159953229e-51,0.557000805201912,3.925113974049816e-95,0.5570016545791387
117.5,0.5371664729736326,0.5432916723221853,-0.008731379001319706,1.55628397843215e-06,1.3425004644246779e-49,0.5520214950395266,4.03016209309201e-93,0.552023051323505
118.0,0.5330090131786521,0.5391342125272048,-0.007234646860456828,2.7977437057020793e-06,5.975237080069297e-48,0.546366061643956,3.783284046309687e-91,0.5463688593876617
118.5,0.5305292813032634,0.5366544806518161,-0.003425212258101329,4.93672194298545e-06,2.411915474119504e-46,0.5400747561879744,3.252820102695734e-89,0.5400796929099174
119.0,0.5287120134163201,0.5348372127648728,0.0016399056948197543,8.553769885763211e-06,8.847654845262041e-45,0.5331887533001674,2.565941433645488e-87,0.5331973070700531
119.5,0.5230147629494512,0.5291399622980039,0.003375557925431094,1.4559180069949448e-05,2.9554621099480383e-43,0.5257498451925028,1.8602139691830225e-85,0.5257644043725728
120.0,0.5148768961132797,0.5210020954618324,0.003177589864705732,2.4352578389094645e-05,9.007523286439798e-42,0.5178001530187376,1.2414401334169715e-83,0.5178245055971267
120.5,0.5098482200798371,0.5159734194283898,0.006551517897981141,4.004477940752412e-05,2.5095739302502247e-40,0.5093818567510011,7.63899888043651e-82,0.5094219015304087
121.0,0.5019549380641778,0.5080801374127305,0.007478433876494495,6.475900434134676e-05,6.403563849394064e-39,0.5005369445318947,4.3409042182498445e-80,0.500601703536236
121.5,0.49241361615778495,0.4985388155063377,0.007128803203189205,0.00010303015105491559,1.499216719785534e-37,0.4913069821520936,2.281534325661631e-78,0.4914100123031485
122.0,0.4833464544497748,0.4894716537983276,0.007577429602425412,0.00016132117532166777,3.22629078773628e-36,0.48173290302058047,1.1107897400937378e-76,0.48189422419590217
122.5,0.47406116659081293,0.4801863659393657,0.00808287303588584,0.00024867416585202504,6.392882394310019e-35,0.47185481873762786,5.016897120299356e-75,0.47210349290347986
123.0,0.46314766182525285,0.4692728611738056,0.007183501314904361,0.0003775097088757973,1.1683807779338882e-33,0.46171185015002547,2.1050540660513996e-73,0.46208935985890126
123.5,0.45103073296569607,0.45715593231424884,0.005249372729425772,0.0005645810207501935,1.9728317929982803e-32,0.4513419785640729,8.217286889121964e-72,0.45190655958482306
124.0,0.43808776375446706,0.44421296310301983,0.0025989678837896046,0.0008320786050355413,3.0826251877390273e-31,0.4407819166141947,2.9883379836444764e-70,0.4416139952192302
124.5,0.42588056190397405,0.4320057612525268,0.0007298964634465666,0.0012088666561553766,4.464444456171517e-30,0.43006699813292487,1.0138013175028435e-68,0.43127586478908025
125.0,0.4135251841213408,0.4196503834698936,-0.0013125170372072503,0.0017318142664539131,6.002132613421223e-29,0.4192310862406469,3.2127050633877205e-67,0.42096290050710083
125.5,0.40220670896784194,0.4083319083163947,-0.002421753826596873,0.0024471633736012155,7.502317375029356e-28,0.40830649876939035,9.522352522310162e-66,0.4107536621429916
126.0,0.3898655852843663,0.3959907846329191,-0.004745017971011012,0.00341185255101873,8.731369569465576e-27,0.3973239500529114,2.6431475022473258e-64,0.4007358026039301
126.5,0.3798812223365011,0.3860064216850539,-0.005000779377649089,0.0046946930091388865,9.475396162183178e-26,0.3863125080535641,6.879213492300976e-63,0.391007201062703
127.0,0.3697346635820932,0.375859862930646,-0.005816975684278969,0.006377272861527982,9.601903948038933e-25,0.37529956575339696,1.6808205574802674e-61,0.38167683861492496
127.5,0.3614752429626824,0.3676004423112352,-0.00526483389526472,0.008554450495665512,9.09841010870916e-24,0.3643108257108344,3.859959481801496e-60,0.3728652762064999
128.0,0.3533275776086138,0.35945277695716654,-0.005251810290746672,0.011334290574555098,8.072567078461969e-23,0.3533702966733581,8.341144232620446e-59,0.3647045872479132
128.5,0.3468542234933843,0.35297942284193706,-0.0043581777006791445,0.014837299403426695,6.715411369832173e-22,0.3425003011391895,1.698016632154406e-57,0.3573376005426162
129.0,0.3417282549189556,0.34785345426750836,-0.003062870731841194,0.0191948322241323,5.2446014140035496e-21,0.33172149277521723,3.2599665557298514e-56,0.35091632499934955
129.5,0.3376025895870804,0.34372778893563316,-0.0018716683680466972,0.02454657468080923,3.850197236490825e-20,0.32105288262287063,5.908952681585723e-55,0.34559945730367986
130.0,0.3349958175835712,0.341121016932124,-0.0004279004261558139,0.031037044301705712,2.6602578542073755e-19,0.3105118730565741,1.0122676403775178e-53,0.3415489173582798
130.5,0.33396095349271704,0.3400861528412698,0.001160740282381778,0.03881111405942316,1.7320587625146008e-18,0.30011429849946486,1.6406625584466093e-52,0.33892541255888803
131.0,0.3336849588939767,0.33981015824252947,0.001927060142600856,0.048008626153094834,1.0639372711134008e-17,0.28987447194683374,2.5183980384453975e-51,0.3378830980999286
131.5,0.33533305012994047,0.34145824947849324,0.00289477709670638,0.05875823598385402,6.172898237461795e-17,0.27980523639793276,3.6647431424627172e-50,0.33856347238178686
132.0,0.33816303032925166,0.3442882296778044,0.003199510691197116,0.07117069863626366,3.386695569461779e-16,0.2699180203503433,5.060583766273528e-49,0.3410887189866073
132.5,0.34242573257194725,0.3485509319205,0.002996158265189619,0.08533187708845703,1.7589793674795067e-15,0.2602228965668516,6.637593321783762e-48,0.3455547736553104
133.0,0.34875390600688894,0.3548791053554417,0.0028546552535598235,0.10129580671996825,8.657969916743378e-15,0.250728643381905,8.277135124076624e-47,0.3520244501018819
133.5,0.3569269047638244,0.36305210411237715,0.0025311074997281247,0.11907818874024197,4.043013523596159e-14,0.2414428078723666,9.82215712624663e-46,0.360520996612649
134.0,0.36670605725595257,0.37283125660450533,0.0018087851356708984,0.1386507011939456,1.7930040225283082e-13,0.23237177027470954,1.1101482716305876e-44,0.37102247146883444
134.5,0.37816321990583424,0.384288419254387,0.0008311031531612056,0.15993650701303,7.559407833602811e-13,0.22352080908743982,1.1961460897946779e-43,0.3834573161012258
135.0,0.3914211412097657,0.39754634055831845,-0.00015512871204620415,0.18280730291451924,3.0329049430827394e-12,0.21489416635281247,1.2296758102239474e-42,0.39770146927036465
135.5,0.40584472373785374,0.4119699230864065,-0.0016073812686038802,0.2070821916779508,1.1590954435576791e-11,0.20649511266546863,1.2071649398411035e-41,0.4135773043550104
136.0,0.42204319547843816,0.42816839482699093,-0.0026861932619955398,0.23252857653972897,4.223620239561094e-11,0.19832601150702125,1.1325858700081363e-40,0.43085458808898647
136.5,0.439654917024306,0.44578011637285875,-0.0034734414753542775,0.2588651751466843,1.468800836787114e-10,0.19038838255464868,1.0163794950750285e-39,0.449253557848213
137.0,0.458591146449248,0.46471634579780075,-0.003733756673807209,0.2857671383255006,4.879236950497484e-10,0.18268296365818365,8.731029661503751e-39,0.46845010247160795
137.5,0.4794185554779469,0.48554375482649964,-0.0025391614244975047,0.31287314347747486,1.549680134869435e-09,0.17520977122384213,7.185177284675977e-38,0.48808291625099715
138.0,0.5009645183500419,0.5070897176985946,-0.0006726674936715638,0.3397942216987707,4.709940642736435e-09,0.1679681587835548,5.668952674249471e-37,0.5077623851922661
138.5,0.5225257982606528,0.5286509976092055,0.0015701308883799836,0.3661239794437903,1.3710272967239074e-08,0.16095687356676222,4.2912689315104973e-36,0.5270808667208255
139.0,0.5429599766541992,0.5490851760027519,0.0034612303916041753,0.3914497964285462,3.825607228773092e-08,0.15417411092652916,3.118918016224872e-35,0.5456239456111477
139.5,0.5616569887860636,0.5677821881346163,0.004799992470311265,0.4153645267516428,1.0240873059898006e-07,0.1476175665039316,2.1780555711948922e-34,0.5629821956643051
140.0,0.5776169279589753,0.5837421273075281,0.004979174805639808,0.4374782032450494,2.632129238080913e-07,0.1412844860439151,1.462466712712541e-33,0.5787629525018883
140.5,0.5905889979461632,0.5967141972947159,0.004112587320374117,0.457429247109507,6.500624958851362e-07,0.1351717128023389,9.448313346560777e-33,0.5926016099743417
141.0,0.6000719312971629,0.6061971306457156,0.002025139165239942,0.47489471507809206,1.5438946504625529e-06,0.12927573250773314,5.877155438363799e-32,0.6041719914804756
141.5,0.6061113000552858,0.6122364994038385,-0.0009589171118739026,0.4895991718703457,3.5287827762094943e-06,0.12359271586259053,3.5221854297543385e-31,0.6131954165157124
142.0,0.6101363311610163,0.616261530509569,-0.0031866480160164246,0.5013218520988797,7.767838829728228e-06,0.118118558587876,2.0350323929719277e-30,0.6194481785255854
142.5,0.6124042700037896,0.6185294693523423,-0.0042377972136090625,0.5099018674208705,1.6480114096263583e-05,0.11284891903098465,1.1342816813000904e-29,0.6227672665659514
143.0,0.6124323190835698,0.6185575184321225,-0.004496772326524789,0.5152413152403622,3.372214645042353e-05,0.10777925337183455,6.102840416322322e-29,0.6230542907586473
143.5,0.6105802876995523,0.616705487048105,-0.003572208785267428,0.517306248137344,6.659922187918609e-05,0.10290484847414913,3.171541276329197e-28,0.6202776958333724
144.0,0.6055802894591287,0.6117054888076814,-0.002767959806434739,0.5161255622096329,0.00012703396490400647,0.09822085243957923,1.592929612496786e-27,0.6144734486141161
144.5,0.5974052775141256,0.6035304768626784,-0.002213963257690965,0.5117879521795219,0.0002341850097320589,0.09372230293111543,7.736886689638906e-27,0.6057444401203693
145.0,0.5871806421038659,0.5933058414524186,-0.0009529845662815672,0.5044371570095455,0.00041751566963050104,0.08940415333952415,3.6360509841664713e-26,0.5942588260187002
145.5,0.5746680565500599,0.5807932558986126,0.0005458344232416312,0.49426577872647437,0.0007203458765420592,0.08526129687235462,1.65437362478318e-25,0.580247421475371
146.0,0.5594120996745596,0.5655372990231123,0.0015372340052735023,0.4815079973616933,0.001203479006560193,0.08128858864958534,7.291523086154926e-25,0.5640000650178388
146.5,0.5415830331056556,0.5477082324542083,0.0018476378584662,0.46643152590725656,0.0019482027951536638,0.07748086589333184,3.1147303051136506e-24,0.5458605945957421
147.0,0.5216689249024099,0.5277941242509626,0.0015743286919257526,0.44932915170680127,0.003057677550914473,0.07383296630132112,1.2902449936769986e-23,0.5262197955590369
147.5,0.49962644393454586,0.5057516432830986,0.00024616790003606503,0.43051019652359607,0.004655534164258982,0.07033974469520754,5.1856243746179914e-23,0.5055054753830626
148.0,0.4771930313358573,0.48331823068441004,-0.0008505718043029242,0.41029219921525545,0.006880515238126037,0.06699608803533147,2.023160561700236e-22,0.48416880248871297
148.5,0.4559923588366237,0.46211755818517647,-0.0005487567590258258,0.38899308557870765,0.009876300472171312,0.06379692889332335,7.666182165622405e-22,0.4626663149442023
149.0,0.4362896716917989,0.44241487104035165,0.0009772612232737399,0.3669240428489341,0.013776309495002017,0.06073725747314177,2.822684547735371e-21,0.4414376098170779
149.5,0.41730942142269656,0.4234346207712493,0.0025549884209390417,0.3443832648900986,0.01868423519045871,0.057812132269753014,1.0103942871367744e-20,0.4208796323503103
150.0,0.39889795782821047,0.40502315717676324,0.00370359785266422,0.321650681457957,0.024652188413297686,0.05501668945284431,3.517804415020968e-20,0.401319559324099
150.5,0.3807446642213452,0.38686986356989794,0.003880581590529175,0.29898373382181986,0.031659397096816665,0.05234615106073229,1.1918122549489022e-19,0.38298928197936877
151.0,0.3628800030552325,0.36900520240378526,0.003000043257599949,0.2766142118167051,0.03959511524238035,0.04979583208709988,3.930960195036431e-19,0.3660051591461853
151.5,0.3458494143987157,0.35197461374726846,0.0016178432715596713,0.2547461258085865,0.048249498126728116,0.04736114654039415,1.2628148357539604e-18,0.3503567704757088
152.0,0.3299675924421132,0.336092791790666,0.00018509607918681947,0.23355455228955505,0.057315530869212594,0.04503761255271157,3.952964332454578e-18,0.33590769571147916
152.5,0.3151268623771556,0.32125206172570836,-0.001157828577787401,0.21318536452196726,0.06640366916967644,0.0428208566118521,1.2062483117442593e-17,0.32240989030349576
153.0,0.3020431038749944,0.30816830322354716,-0.0013629224140808138,0.1937557399740139,0.07506886867667124,0.04070661698694275,3.589765506677521e-17,0.30953122563762797
153.5,0.2889139760527191,0.2950391754012719,-0.0018544075906132274,0.17535532396738995,0.08284751260979269,0.03869074641470237,1.0422994659154616e-16,0.2968935829918851
154.0,0.2759736067357332,0.28209880608428595,-0.00201818002829135,0.15804792339112136,0.08929984861141532,0.03676921411004032,2.953889379826002e-16,0.2841169861125773
154.5,0.2621697243945589,0.26829492374311165,-0.0025691273610704,0.14187360468340499,0.09405233925948113,0.03493810716129507,8.174216937552732e-16,0.27086405110418205
155.0,0.248271273669774,0.25439647301832674,-0.0024823350776610464,0.12685107555302189,0.0968341011759055,0.03319363136705817,2.209632559565265e-15,0.2568788080959878
155.5,0.2335535611007936,0.23967876044934633,-0.0023360157620166966,0.11298023904069457,0.09750242560246095,0.03153211156820168,5.836930929783954e-15,0.24201477621136303
156.0,0.21846985306094033,0.22459505240949307,-0.0016538356178363578,0.10024482044650675,0.0960540760553428,0.029949991525464785,1.5073190934549314e-14,0.22624888802732943
156.5,0.20252118857555648,0.20864638792410922,-0.0010337206057388637,0.08861498136702058,0.0926212937730247,0.02844383338976477,3.806664144303836e-14,0.20968010852984809
157.0,0.18681991057045683,0.19294510991900957,0.00043118591306640086,0.07804984968936918,0.08745375750717937,0.02701031680930055,9.405074973951603e-14,0.19251392400594317
157.5,0.1712678048814632,0.17739300423001594,0.002357157052846226,0.06849990910126985,0.08088970036115807,0.0256462377145144,2.274128758034621e-13,0.17503584717716972
158.0,0.15514381693627818,0.16126901628483092,0.0036906510193812914,0.05990920586039733,0.07332065258542822,0.024348506819085725,5.383402558609364e-13,0.15757836526544963
158.5,0.13885130624381958,0.14497650559237232,0.00449031622615928,0.052217343735547116,0.06515469775706186,0.02311414787235602,1.2480697330698652e-12,0.14048618936621304
159.0,0.1228110836024404,0.12893628295099316,0.004852008113566009,0.04536124983907917,0.05678272929959377,0.0219402956959195,2.8347156431166967e-12,0.12408427483742715
159.5,0.10676964787398596,0.1128948472225387,0.0042427905292983376,0.039276704299336475,0.04855115835301037,0.020824194034583726,6.309785865557799e-12,0.10865205669324036
160.0,0.09150746586727558,0.09763266521582832,0.0032267081311784657,0.03389963527088634,0.0407431285505073,0.019763193249487363,1.3768842577350343e-11,0.09440595708464986
160.5,0.0769169068403855,0.08304210618893824,0.0015513365488232234,0.02916718764270691,0.033568834089068814,0.018754747878874826,2.94644690800545e-11,0.08149076964011502
161.0,0.06329958437326473,0.06942478372181747,-0.0005544761410568033,0.025018579048184143,0.02716426666297135,0.017796414089866416,6.18523726688076e-11,0.06997925986287427
161.5,0.05107936343950532,0.057204562788058064,-0.002673846362746278,0.021395760530148966,0.02159680145073003,0.016885847042514494,1.2741084955552514e-10,0.05987840915080434
162.0,0.04069748737830776,0.046822686726860505,-0.0043175536647517,0.01824390163139198,0.016875540317076134,0.016020798185522583,2.5762150626138485e-10,0.051140240391612204
162.5,0.032076570282134995,0.038201769630687735,-0.005473304658420823,0.015511720950050654,0.012964240326399675,0.015199112501194916,5.114633066337416e-10,0.04367507428910856
163.0,0.0248239803847963,0.030949179733349045,-0.0064161132523738,0.013151683512699235,0.009794882760210032,0.01441872571549888,9.97314702023919e-10,0.037365292985722845
163.5,0.018729585050782583,0.024854784399335327,-0.007223330797290914,0.011120085866212366,0.007280365932303886,0.013677661487545114,1.9105648757753325e-09,0.03207811519662624
164.0,0.014282999336167676,0.02040819868472042,-0.00726819858553546,0.009377048752571346,0.005325316329475327,0.012974028591316904,3.5968923041071067e-09,0.027676397270255882
164.5,0.010387910364100163,0.016513109712652907,-0.007513859792578945,0.007886435772682712,0.0038345089748500847,0.01230601810111774,6.656581312342951e-09,0.02402696950523185
165.0,0.007174621508414115,0.013299820856966859,-0.007706609244138251,0.006615714710141395,0.0027188026869904938,0.01167190059093264,1.2113040581768716e-08,0.02100643010110511
165.5,0.004958238737007561,0.011083438085560305,-0.00742117885811793,0.005535776296446463,0.001898795610911966,0.01107002335672756,2.167959224573251e-08,0.018504616943678234
166.0,0.003140211671973781,0.009265411020526524,-0.007160744025765964,0.004620723256291981,0.001306585946971599,0.010498807669624155,3.817340475309064e-08,0.01642615504629249
166.5,0.0013346740193917548,0.007459873367944498,-0.007230676452317489,0.003847640555035102,0.0008860970534365573,0.009956746066888076,6.614490225334139e-08,0.014690549820261987
167.0,0.000259916773996554,0.006385116122549298,-0.006846172957351639,0.0031963559406073165,0.0005924206368703459,0.009442399686750116,1.1281567315789965e-07,0.013231289079900937
167.5,-0.0005985298506835755,0.005526669497869168,-0.006467688771281502,0.0026491981719333818,0.0003905749969768965,0.008954395652234038,1.8944800635503972e-07,0.01199435826915067
168.0,-0.0012710352273682451,0.004854164121184498,-0.006082325433578772,0.0021907587833195326,0.00025399295881952603,0.00849142450839544,3.133042287716479e-07,0.01093648955476327
168.5,-0.001847878406279433,0.004277320942273311,-0.00574605516345862,0.0018076618646894107,0.00016296613183090655,0.008052237716669365,5.103925422489912e-07,0.01002337610573193
169.0,-0.0023400195271262108,0.0037851798214265328,-0.005442821485857339,0.0014883451463233554,0.00010319171629989317,0.0076356452093839094,8.192352767134905e-07,0.009228001307283872
169.5,-0.0028317138743363768,0.0032934854742163668,-0.005235680456047999,0.0012228546613811159,6.450233099443893e-05,0.00724051300691443,1.2959309743817208e-06,0.008529165930264366
170.0,-0.0027139959073521004,0.003411203441200643,-0.0044990432433725264,0.0010026544116526414,3.98105662516356e-05,0.006865760899424267,2.0208072446262002e-06,0.00791024668457317
170.5,-0.003021856778972639,0.0031033425695801047,-0.004254843635780419,0.0008204517693554835,2.4267272560811387e-05,0.006510360194663365,3.106968780863898e-06,0.007358186205360524
171.0,-0.0034219946281974422,0.0027032047203553013,-0.004159489942870314,0.0006700387955077476,1.4613310220383753e-05,0.006173331532865882,4.711024631601726e-06,0.006862694663225615
171.5,-0.0032557481651627313,0.0028694511833900122,-0.0035461823363332023,0.0005461492272784627,8.69530288857825e-06,0.005853742769404791,7.046220151382811e-06,0.0064156335197232146
172.0,-0.0036696063714187774,0.002455592977133966,-0.0035549562548024384,0.00044433056621526743,5.113648673105086e-06,0.005550706925517228,1.039809153080382e-05,0.0060105492319364046
172.5,-0.0035379956986805886,0.002587203649872155,-0.0030551225680139045,0.0003608304702130952,2.972945029199211e-06,0.0052633802071092506,1.5142595534514132e-05,0.0056423262178860595
173.0,-0.0036467273334313695,0.002478472015121374,-0.002828460047945495,0.00029249649924595306,1.7090338137594968e-06,0.0049909600913779755,2.1766438629180667e-05,0.005306932063066869
173.5,-0.0036427180196627815,0.002482481328889962,-0.002518751033351604,0.00023668817420543126,9.716691700535053e-07,0.00473268348074998,3.0889038116101674e-05,0.005001232362241566
174.0,-0.003990127636229593,0.0021350717123231507,-0.0025877851719994993,0.0001912002670860201,5.464930783367011e-07,0.0044878249234266655,4.328520073162804e-05,0.00472285688432265
