wavelength,absorbance,absorbance_bk,residual_3gauss,Gauss_1,Gauss_2,Gauss_3,Gauss_4,Gauss_fit
117.0,0.5379610697169124,0.5440862690654651,-0.01291538561960559,8.493772340359343e-07,2.729766377498389e-51,0.5570008053078367,3.9251167305678e-95,0.5570016546850707
117.5,0.5371664729736326,0.5432916723221853,-0.008731379095709979,1.5562839910595245e-06,1.3425000923897133e-49,0.5520214951339043,4.030164862206908e-93,0.5520230514178953
118.0,0.5330090131786521,0.5391342125272048,-0.0072346469434869665,2.797743727326493e-06,5.975235479639644e-48,0.5463660617269644,3.78328658947237e-91,0.5463688594706918
118.5,0.5305292813032634,0.5366544806518161,-0.003425212329994487,4.936721979306147e-06,2.411914849912745e-46,0.5400747562598313,3.2528222417811644e-89,0.5400796929818106
119.0,0.5287120134163201,0.5348372127648728,0.0016399056338004536,8.553769945618856e-06,8.847652633448838e-45,0.5331887533611268,2.5659430842888294e-87,0.5331973071310724
119.5,0.5230147629494512,0.5291399622980039,0.0033755578749848913,1.4559180166767148e-05,2.9554613964963776e-43,0.5257498452428522,1.8602151397132447e-85,0.525764404423019
120.0,0.5148768961132797,0.5210020954618324,0.0031775898244957856,2.435257854285896e-05,9.007521187382275e-42,0.5178001530587938,1.241440897486526e-83,0.5178245056373366
120.5,0.5098482200798371,0.5159734194283898,0.006551517867635526,4.004477964738248e-05,2.509573365891465e-40,0.5093818567811069,7.639003478811271e-82,0.5094219015607543
121.0,0.5019549380641778,0.5080801374127305,0.0074784338556060925,6.475900470896345e-05,6.40356246019147e-39,0.5005369445524155,4.340906773783869e-80,0.5006017035571244
121.5,0.49241361615778495,0.4985388155063377,0.00712880319131487,0.0001030301516086665,1.499216406136271e-37,0.4913069821634142,2.281535639173615e-78,0.49141001231502285
122.0,0.4833464544497748,0.4894716537983276,0.007577429599084529,0.00016132117614172718,3.22629013706423e-36,0.48173290302310134,1.110790365433038e-76,0.48189422419924305
122.5,0.47406116659081293,0.4801863659393657,0.008082873040556826,0.0002486741670463319,6.392881151880388e-35,0.47185481873176255,5.016899881935179e-75,0.4721034928988089
123.0,0.46314766182525285,0.4692728611738056,0.0071835013270216685,0.0003775097105867935,1.1683805592038457e-33,0.46171185013619714,2.1050551990037074e-73,0.46208935984678395
123.5,0.45103073296569607,0.45715593231424884,0.005249372748374892,0.0005645810231621124,1.9728314373750914e-32,0.45134197854271185,8.217291212895614e-72,0.45190655956587394
124.0,0.43808776375446706,0.44421296310301983,0.0025989679089026274,0.0008320786083818816,3.0826246529061115e-31,0.44078191658573534,2.988339520802703e-70,0.4416139951941172
124.5,0.42588056190397405,0.4320057612525268,0.0007298964939972397,0.0012088666607260384,4.464443710963205e-30,0.4300669980978035,1.013801827260218e-68,0.4312758647585296
125.0,0.4135251841213408,0.4196503834698936,-0.0013125170020070187,0.0017318142726013282,6.002131649951719e-29,0.4192310861992993,3.212706642343451e-67,0.4209629004719006
125.5,0.40220670896784194,0.4083319083163947,-0.002421753787599401,0.0024471633817446602,7.50231621744462e-28,0.40830649872224944,9.522357096325635e-66,0.4107536621039941
126.0,0.3898655852843663,0.3959907846329191,-0.004745017929132456,0.0034118525616459046,8.731368275088643e-27,0.39732395000040566,2.6431487430249498e-64,0.40073580256205155
126.5,0.3798812223365011,0.3860064216850539,-0.0050007793338653905,0.004694693022803855,9.475394813264267e-26,0.38631250799611544,6.879216647993339e-63,0.3910072010189193
127.0,0.3697346635820932,0.375859862930646,-0.005816975639617805,0.0063772728788445135,9.601902636027885e-25,0.3752995656914193,1.680821310877068e-61,0.3816768385702638
127.5,0.3614752429626824,0.3676004423112352,-0.00526483385079235,0.008554450517295198,9.098408916064248e-24,0.36431082564473233,3.859961172219371e-60,0.3728652761620275
128.0,0.3533275776086138,0.35945277695716654,-0.00525181024754845,0.011334290601189618,8.07256606387661e-23,0.35337029660352537,8.341147801298323e-59,0.364704587204715
128.5,0.3468542234933843,0.35297942284193706,-0.00435817765983515,0.014837299435764267,6.715410561038066e-22,0.34250030106600793,1.6980173418213125e-57,0.3573376005017722
129.0,0.3417282549189556,0.34785345426750836,-0.003062870694396369,0.01919483226284859,5.2446008090604446e-21,0.33172149269905615,3.259967886540509e-56,0.3509163249619047
129.5,0.3376025895870804,0.34372778893563316,-0.001871668334976151,0.024546574726523534,3.850196811420783e-20,0.32105288254408576,5.90895503751802e-55,0.3455994572706093
130.0,0.3349958175835712,0.341121016932124,-0.0004279003983270191,0.03103704435494401,2.6602575732725745e-19,0.310511872975507,1.0122680345210974e-53,0.341548917330451
130.5,0.33396095349271704,0.3400861528412698,0.001160740304247565,0.03881111412057973,1.7320585876639754e-18,0.3001142984164425,1.640663182241567e-52,0.33892541253702224
131.0,0.3336849588939767,0.33981015824252947,0.0019270601579663982,0.048008626222395066,1.0639371685126145e-17,0.28987447186216797,2.5183989733474387e-51,0.33788309808456307
131.5,0.33533305012994047,0.34145824947849324,0.0028947771052521554,0.058758236061320794,6.172897669198338e-17,0.2798052363119202,3.664744470649104e-50,0.3385634723732411
132.0,0.33816303032925166,0.3442882296778044,0.0031995106928484063,0.07117069872169042,3.386695272058249e-16,0.2699180202632653,5.060585556645986e-49,0.341088718984956
132.5,0.34242573257194725,0.3485509319205,0.002996158260134496,0.08533187718138999,1.7589792202446476e-15,0.2602228964789738,6.637595613881593e-48,0.3455547736603655
133.0,0.34875390600688894,0.3548791053554417,0.0028546552422555327,0.10129580681969994,8.657969226499366e-15,0.25072864329347755,8.277137913623753e-47,0.35202445011318617
133.5,0.3569269047638244,0.36305210411237715,0.002531107482893813,0.1190781888458184,4.04301321685601e-14,0.24144280778362448,9.822160356539422e-46,0.36052099662948334
134.0,0.36670605725595257,0.37283125660450533,0.001808785114266187,0.13865070130418744,1.7930038931825017e-13,0.23237177018587243,1.1101486278736451e-44,0.37102247149023915
134.5,0.37816321990583424,0.384288419254387,0.0008311031283502746,0.15993650712656812,7.559407315549e-13,0.22352080899871268,1.1961464642740683e-43,0.38345731612603673
135.0,0.3914211412097657,0.39754634055831845,-0.0001551287389436884,0.1828073030298437,3.0329047458155506e-12,0.2148941662643855,1.2296761857666057e-42,0.39770146929726213
135.5,0.40584472373785374,0.4119699230864065,-0.0016073812961734935,0.20708219179347126,1.159095372075369e-11,0.20649511257751782,1.2071652994294515e-41,0.41357730438258
136.0,0.42204319547843816,0.42816839482699093,-0.002686193288797878,0.2325285766538437,4.223619992842291e-11,0.1983260114197089,1.132586199029914e-40,0.4308545881157888
136.5,0.439654917024306,0.44578011637285875,-0.0034734414999991192,0.25886517525785424,1.4688007556065957e-10,0.19038838246812356,1.016379782991647e-39,0.44925355787285787
137.0,0.458591146449248,0.46471634579780075,-0.0037337566950285672,0.2857671384323241,4.879236695624722e-10,0.18268296357258157,8.731032072936424e-39,0.4684501024928293
137.5,0.4794185554779469,0.48554375482649964,-0.0025391614412261787,0.31287314357875917,1.5496800584536446e-09,0.17520977113928657,7.185179219253435e-38,0.4880829162677258
138.0,0.5009645183500419,0.5070897176985946,-0.0006726675050986453,0.33979422179359553,4.709940423765196e-09,0.16796815870015727,5.6689541619967855e-37,0.5077623852036932
138.5,0.5225257982606528,0.5286509976092055,0.0015701308827504867,0.3661239795315599,1.3710272367058645e-08,0.16095687348462281,4.291270029067415e-36,0.527080866726455
139.0,0.5429599766541992,0.5490851760027519,0.0034612303919179244,0.39144979650902617,3.825607071300889e-08,0.15417411084573704,3.118918793538101e-35,0.5456239456108339
139.5,0.5616569887860636,0.5677821881346163,0.004799992476343773,0.4153645268249802,1.0240872664094159e-07,0.1476175664245657,2.178056100061453e-34,0.5629821956582726
140.0,0.5776169279589753,0.5837421273075281,0.004979174816795329,0.437478203311774,2.6321291427075797e-07,0.14128448596604448,1.462467058636713e-33,0.5787629524907327
140.5,0.5905889979461632,0.5967141972947159,0.004112587335705076,0.4574292471705136,6.500624738380252e-07,0.13517171272602335,9.44831552325846e-33,0.5926016099590108
141.0,0.6000719312971629,0.6061971306457156,0.002025139183484792,0.4748947151346054,1.5438946015352983e-06,0.12927573243302376,5.877156756891768e-32,0.6041719914622308
141.5,0.6061113000552858,0.6122364994038385,-0.0009589170922329471,0.48959917192386937,3.528782671903062e-06,0.12359271578953017,3.52218619913373e-31,0.6131954164960715
142.0,0.6101363311610163,0.616261530509569,-0.003186647996679004,0.5013218521511322,7.767838615977063e-06,0.11811855851649974,2.0350328257167134e-30,0.619448178506248
142.5,0.6124042700037896,0.6185294693523423,-0.0042377971963650785,0.5099018674737119,1.6480113674946997e-05,0.11284891896132054,1.1342819160675457e-29,0.6227672665487074
143.0,0.6124323190835698,0.6185575184321225,-0.004496772313147268,0.5152413152957147,3.372214565120465e-05,0.10777925330390385,6.102841645537233e-29,0.6230542907452697
143.5,0.6105802876995523,0.616705487048105,-0.003572208777393282,0.5173062481971121,6.659922041928527e-05,0.10290484840796686,3.171541897864079e-28,0.6202776958254983
144.0,0.6055802894591287,0.6117054888076814,-0.0027679598054336507,0.5161255622756257,0.00012703396233471742,0.09822085237515467,1.5929299161722075e-27,0.614473448613115
144.5,0.5974052775141256,0.6035304768626784,-0.0022139632645284957,0.5117879522533809,0.00023418500537338905,0.09372230286845254,7.736888124182556e-27,0.6057444401272069
145.0,0.5871806421038659,0.5933058414524186,-0.0009529845813861515,0.5044371570926832,0.00041751566249945675,0.08940415327862201,3.6360516397476077e-26,0.5942588260338048
145.5,0.5746680565500599,0.5807932558986126,0.0005458344000959237,0.4942657788200235,0.000720345865285541,0.08526129681320777,1.6543739147787086e-25,0.5802474214985167
146.0,0.5594120996745596,0.5655372990231123,0.0015372339750489017,0.48150799746646994,0.001203478989409313,0.08128858859218423,7.291524328514675e-25,0.5640000650480634
146.5,0.5415830331056556,0.5477082324542083,0.0018476378228863277,0.4664315260237379,0.0019482027699208688,0.07748086583766327,3.1147308208512643e-24,0.545860594631322
147.0,0.5216689249024099,0.5277941242509626,0.0015743286534209977,0.449329151835117,0.0030576775150560715,0.0738329662473685,1.2902452012473486e-23,0.5262197955975416
147.5,0.49962644393454586,0.5057516432830986,0.0002461678615910401,0.430510196663535,0.004655534115021321,0.07033974464295119,5.1856251849855185e-23,0.5055054754215076
148.0,0.4771930313358573,0.48331823068441004,-0.000850571839404457,0.4102921993662831,0.00688051517278242,0.066996087984749,2.023160868743644e-22,0.4841688025238145
148.5,0.4559923588366237,0.46211755818517647,-0.0005487567875483434,0.38899308573999564,0.009876300388339197,0.06379692884438998,7.666183295249205e-22,0.4626663149727248
149.0,0.4362896716917989,0.44241487104035165,0.0009772612041143436,0.3669240430193982,0.013776309391008514,0.06073725742583064,2.8226849514736415e-21,0.4414376098362373
149.5,0.41730942142269656,0.4234346207712493,0.0025549884130695033,0.3443832650684427,0.01868423506570187,0.057812132224035265,1.0103944273867173e-20,0.4208796323581798
150.0,0.39889795782821047,0.40502315717676324,0.003703597856814289,0.32165068164272215,0.024652188268537288,0.05501668940868954,3.5178048887690343e-20,0.40131955931994895
150.5,0.3807446642213452,0.38686986356989794,0.0038805816060285547,0.29898373401143374,0.031659396934326935,0.052346151018108716,1.19181241062942e-19,0.3829892819638694
151.0,0.3628800030552325,0.36900520240378526,0.003000043282366971,0.2766142120095325,0.039595115065911256,0.04979583204597453,3.930960692956177e-19,0.3660051591214183
151.5,0.3458494143987157,0.35197461374726846,0.0016178433023071315,0.25474612600297675,0.04824949794125157,0.047361146500733045,1.2628149908194357e-18,0.35035677044496133
152.0,0.3299675924421132,0.336092791790666,0.0001850961118313177,0.2335545524838855,0.057315530680469164,0.04503761251447994,3.952964802879411e-18,0.33590769567883466
152.5,0.3151268623771556,0.32125206172570836,-0.0011578285475689065,0.21318536471468283,0.06640366898357988,0.042820856575014575,1.2062484508258438e-17,0.32240989027327727
153.0,0.3020431038749944,0.30816830322354716,-0.001362922390236443,0.19375574016365965,0.0750688684986604,0.04070661695146351,3.5897659075762925e-17,0.3095312256137836
153.5,0.2889139760527191,0.2950391754012719,-0.0018544075761481316,0.1753553241526379,0.08284751244423676,0.038690746380545246,1.0422995786256967e-16,0.29689358297742
154.0,0.2759736067357332,0.28209880608428595,-0.0020181800248457726,0.15804792357079064,0.08929984846117184,0.03676921407716897,2.953889689019195e-16,0.2841169861091317
154.5,0.2621697243945589,0.26829492374311165,-0.002569127368716728,0.14187360485647552,0.09405233912567895,0.03493810712967309,8.174217765504976e-16,0.2708640511118284
155.0,0.248271273669774,0.25439647301832674,-0.0024823350949495504,0.12685107571864224,0.09683410105798267,0.03319363133664916,2.2096327760648465e-15,0.2568788081132763
155.5,0.2335535611007936,0.23967876044934633,-0.002336015786252338,0.1129802391981837,0.09750242549843967,0.031532111538969475,5.836931482815088e-15,0.24201477623559867
156.0,0.21846985306094033,0.22459505240949307,-0.0016538356455284842,0.1002448205953514,0.09605407596228167,0.029949991497373388,1.507319231507306e-14,0.22624888805502155
156.5,0.20252118857555648,0.20864638792410922,-0.001033720633136198,0.08861498150686836,0.09262129368756052,0.028443833362778496,3.8066644812014024e-14,0.20968010855724542
157.0,0.18681991057045683,0.19294510991900957,0.0004311858894499587,0.07804984982001814,0.08745375742606322,0.027010316783384163,9.405075777970363e-14,0.1925139240295596
157.5,0.1712678048814632,0.17739300423001594,0.0023571570357988625,0.06849990922265572,0.0808897002817009,0.02564623768963306,2.274128945750287e-13,0.17503584719421708
158.0,0.15514381693627818,0.16126901628483092,0.003690651010710616,0.05990920597257888,0.07332065250579796,0.024348506795205116,5.383402987502861e-13,0.1575783652741203
158.5,0.13885130624381958,0.14497650559237232,0.00449031622658444,0.05221734383869034,0.06515469767640708,0.023114147849442393,1.2480698290007855e-12,0.14048618936578788
159.0,0.1228110836024404,0.12893628295099316,0.004852008122774962,0.045361249933441226,0.05678272921800251,0.021940295673939736,2.834715853238205e-12,0.1240842748282182
159.5,0.10676964787398596,0.1128948472225387,0.004242790546135397,0.0392767043852496,0.04855115827133861,0.02082419401350531,6.309786316400449e-12,0.1086520566764033
160.0,0.09150746586727558,0.09763266521582832,0.0032267081539114756,0.03389963534874224,0.04074312847012729,0.019763193229278466,1.3768843525242253e-11,0.09440595706191685
160.5,0.0769169068403855,0.08304210618893824,0.0015513365754369762,0.029167187712942143,0.033568834011590325,0.018754747859504334,2.9464471033520955e-11,0.08149076961350127
161.0,0.06329958437326473,0.06942478372181747,-0.000554476112588187,0.025018579111266617,0.027164266589982757,0.01779641407130392,6.185237661608428e-11,0.06997925983440566
161.5,0.05107936343950532,0.057204562788058064,-0.002673846334241496,0.02139576058656582,0.021596801383592566,0.016885847024730317,1.2741085737832103e-10,0.05987840912229956
162.0,0.04069748737830776,0.046822686726860505,-0.004317553637676691,0.018243901681638898,0.016875540256788942,0.016020798168487838,2.576215214712315e-10,0.051140240364537196
162.5,0.032076570282134995,0.038201769630687735,-0.005473304633817823,0.015511720994622615,0.012964240273538152,0.015199112484881452,5.114633356545105e-10,0.04367507426450556
163.0,0.0248239803847963,0.030949179733349045,-0.006416113230856415,0.013151683552082839,0.009794882714928548,0.014418725699879316,9.973147563782754e-10,0.03736529296420546
163.5,0.018729585050782583,0.024854784399335327,-0.007223330779088655,0.01112008590087951,0.007280365894386655,0.013677661472592844,1.9105649757335644e-09,0.03207811517842398
164.0,0.014282999336167676,0.02040819868472042,-0.007268198570569144,0.009377048782974266,0.0053253162984167,0.012974028577006113,3.5968924846482433e-09,0.027676397255289566
164.5,0.010387910364100163,0.016513109712652907,-0.007513859780548977,0.00788643579925024,0.00383450894994663,0.01230601808742338,6.656581632688901e-09,0.024026969493201884
165.0,0.007174621508414115,0.013299820856966859,-0.007706609234611552,0.00661571473327632,0.002718802667430531,0.011671900577830421,1.211304114031216e-08,0.02100643009157841
165.5,0.004958238737007561,0.011083438085560305,-0.0074211788506036,0.005535776316523833,0.0018987955958529076,0.011070023344193962,2.1679593202917687e-08,0.018504616936163905
166.0,0.003140211671973781,0.009265411020526524,-0.007160744019774347,0.00462072327365826,0.0013065859355998384,0.010498807657636406,3.817340636574072e-08,0.01642615504030087
166.5,0.0013346740193917548,0.007459873367944498,-0.007230676447401186,0.003847640570008009,0.000886097045008583,0.009956746055424168,6.614490492505929e-08,0.014690549815345684
167.0,0.000259916773996554,0.006385116122549298,-0.006846172953129669,0.0031963559534762317,0.0005924206307364472,0.009442399675788776,1.1281567751147136e-07,0.013231289075678967
167.5,-0.0005985298506835755,0.005526669497869168,-0.006467688767449545,0.0026491981829601767,0.0003905749925905076,0.008954395641754695,1.8944801333416653e-07,0.011994358265318713
168.0,-0.0012710352273682451,0.004854164121184498,-0.0060823254299092406,0.002190758792739804,0.0002539929557358992,0.008491424498378254,3.133042397806908e-07,0.010936489551093739
168.5,-0.001847878406279433,0.004277320942273311,-0.005746055159793881,0.0018076618727138917,0.000162966129698766,0.008052237707095193,5.103925593405216e-07,0.010023376102067192
169.0,-0.0023400195271262108,0.0037851798214265328,-0.005442821482099359,0.001488345153139563,0.00010319171484920599,0.007635645200234288,8.192353028340383e-07,0.009228001303525891
169.5,-0.0028317138743363768,0.0032934854742163668,-0.005235680452146677,0.0012228546671550539,6.450233002274351e-05,0.0072405129981715595,1.2959310136857872e-06,0.008529165926363044
170.0,-0.0027139959073521004,0.003411203441200643,-0.004499043239314424,0.0010026544165305702,3.981056561061758e-05,0.006865760891071012,2.020807302867025e-06,0.007910246680515067
170.5,-0.003021856778972639,0.0031033425695801047,-0.00425484363157882,0.0008204517734656783,2.4267272144161745e-05,0.006510360186683218,3.106968865866069e-06,0.007358186201158925
171.0,-0.0034219946281974422,0.0027032047203553013,-0.004159489938557143,0.0006700387989622201,1.4613309953451266e-05,0.006173331525242957,4.711024753815286e-06,0.0068626946589124445
171.5,-0.0032557481651627313,0.0028694511833900122,-0.0035461823319528755,0.0005461492301746143,8.69530271995269e-06,0.0058537427621238106,7.046220324510522e-06,0.006415633515342888
172.0,-0.0036696063714187774,0.002455592977133966,-0.0035549562504075,0.00044433056863745754,5.1136485680318294e-06,0.005550706918563494,1.0398091772482818e-05,0.006010549227541466
172.5,-0.0035379956986805886,0.002587203649872155,-0.0030551225636622076,0.0003608304722341075,2.9729449645955925e-06,0.005263380200468639,1.5142595867020386e-05,0.0056423262135343625
173.0,-0.0036467273334313695,0.002478472015121374,-0.0028284600436985553,0.0002924965009283533,1.7090337745527495e-06,0.004990960085036913,2.176643908011035e-05,0.005306932058819929
173.5,-0.0036427180196627815,0.002482481328889962,-0.0025187510292738148,0.00023668817560280983,9.716691465602969e-07,0.004732683474695439,3.088903871896804e-05,0.005001232358163777
174.0,-0.003990127636229593,0.0021350717123231507,-0.0025877851681578405,0.00019120026824412438,5.464930644328668e-07,0.004487824917646135,4.328520152629845e-05,0.004722856880480991
