wavelength,absorbance,absorbance_bk,residual_3gauss
117.0,0.5379610697169124,0.5440862690654651,-0.01291538551367366
117.5,0.5371664729736326,0.5432916723221853,-0.008731379001319706
118.0,0.5330090131786521,0.5391342125272048,-0.007234646860456828
118.5,0.5305292813032634,0.5366544806518161,-0.003425212258101329
119.0,0.5287120134163201,0.5348372127648728,0.0016399056948197543
119.5,0.5230147629494512,0.5291399622980039,0.003375557925431094
120.0,0.5148768961132797,0.5210020954618324,0.003177589864705732
120.5,0.5098482200798371,0.5159734194283898,0.006551517897981141
121.0,0.5019549380641778,0.5080801374127305,0.007478433876494495
121.5,0.49241361615778495,0.4985388155063377,0.007128803203189205
122.0,0.4833464544497748,0.4894716537983276,0.007577429602425412
122.5,0.47406116659081293,0.4801863659393657,0.00808287303588584
123.0,0.46314766182525285,0.4692728611738056,0.007183501314904361
123.5,0.45103073296569607,0.45715593231424884,0.005249372729425772
124.0,0.43808776375446706,0.44421296310301983,0.0025989678837896046
124.5,0.42588056190397405,0.4320057612525268,0.0007298964634465666
125.0,0.4135251841213408,0.4196503834698936,-0.0013125170372072503
125.5,0.40220670896784194,0.4083319083163947,-0.002421753826596873
126.0,0.3898655852843663,0.3959907846329191,-0.004745017971011012
126.5,0.3798812223365011,0.3860064216850539,-0.005000779377649089
127.0,0.3697346635820932,0.375859862930646,-0.005816975684278969
127.5,0.3614752429626824,0.3676004423112352,-0.00526483389526472
128.0,0.3533275776086138,0.35945277695716654,-0.005251810290746672
128.5,0.3468542234933843,0.35297942284193706,-0.0043581777006791445
129.0,0.3417282549189556,0.34785345426750836,-0.003062870731841194
129.5,0.3376025895870804,0.34372778893563316,-0.0018716683680466972
130.0,0.3349958175835712,0.341121016932124,-0.0004279004261558139
130.5,0.33396095349271704,0.3400861528412698,0.001160740282381778
131.0,0.3336849588939767,0.33981015824252947,0.001927060142600856
131.5,0.33533305012994047,0.34145824947849324,0.00289477709670638
132.0,0.33816303032925166,0.3442882296778044,0.003199510691197116
132.5,0.34242573257194725,0.3485509319205,0.002996158265189619
133.0,0.34875390600688894,0.3548791053554417,0.0028546552535598235
133.5,0.3569269047638244,0.36305210411237715,0.0025311074997281247
134.0,0.36670605725595257,0.37283125660450533,0.0018087851356708984
134.5,0.37816321990583424,0.384288419254387,0.0008311031531612056
135.0,0.3914211412097657,0.39754634055831845,-0.00015512871204620415
135.5,0.40584472373785374,0.4119699230864065,-0.0016073812686038802
136.0,0.42204319547843816,0.42816839482699093,-0.0026861932619955398
136.5,0.439654917024306,0.44578011637285875,-0.0034734414753542775
137.0,0.458591146449248,0.46471634579780075,-0.003733756673807209
137.5,0.4794185554779469,0.48554375482649964,-0.0025391614244975047
138.0,0.5009645183500419,0.5070897176985946,-0.0006726674936715638
138.5,0.5225257982606528,0.5286509976092055,0.0015701308883799836
139.0,0.5429599766541992,0.5490851760027519,0.0034612303916041753
139.5,0.5616569887860636,0.5677821881346163,0.004799992470311265
140.0,0.5776169279589753,0.5837421273075281,0.004979174805639808
140.5,0.5905889979461632,0.5967141972947159,0.004112587320374117
141.0,0.6000719312971629,0.6061971306457156,0.002025139165239942
141.5,0.6061113000552858,0.6122364994038385,-0.0009589171118739026
142.0,0.6101363311610163,0.616261530509569,-0.0031866480160164246
142.5,0.6124042700037896,0.6185294693523423,-0.0042377972136090625
143.0,0.6124323190835698,0.6185575184321225,-0.004496772326524789
143.5,0.6105802876995523,0.616705487048105,-0.003572208785267428
144.0,0.6055802894591287,0.6117054888076814,-0.002767959806434739
144.5,0.5974052775141256,0.6035304768626784,-0.002213963257690965
145.0,0.5871806421038659,0.5933058414524186,-0.0009529845662815672
145.5,0.5746680565500599,0.5807932558986126,0.0005458344232416312
146.0,0.5594120996745596,0.5655372990231123,0.0015372340052735023
146.5,0.5415830331056556,0.5477082324542083,0.0018476378584662
147.0,0.5216689249024099,0.5277941242509626,0.0015743286919257526
147.5,0.49962644393454586,0.5057516432830986,0.00024616790003606503
148.0,0.4771930313358573,0.48331823068441004,-0.0008505718043029242
148.5,0.4559923588366237,0.46211755818517647,-0.0005487567590258258
149.0,0.4362896716917989,0.44241487104035165,0.0009772612232737399
149.5,0.41730942142269656,0.4234346207712493,0.0025549884209390417
150.0,0.39889795782821047,0.40502315717676324,0.00370359785266422
150.5,0.3807446642213452,0.38686986356989794,0.003880581590529175
151.0,0.3628800030552325,0.36900520240378526,0.003000043257599949
151.5,0.3458494143987157,0.35197461374726846,0.0016178432715596713
152.0,0.3299675924421132,0.336092791790666,0.00018509607918681947
152.5,0.3151268623771556,0.32125206172570836,-0.001157828577787401
153.0,0.3020431038749944,0.30816830322354716,-0.0013629224140808138
153.5,0.2889139760527191,0.2950391754012719,-0.0018544075906132274
154.0,0.2759736067357332,0.28209880608428595,-0.00201818002829135
154.5,0.2621697243945589,0.26829492374311165,-0.0025691273610704
155.0,0.248271273669774,0.25439647301832674,-0.0024823350776610464
155.5,0.2335535611007936,0.23967876044934633,-0.0023360157620166966
156.0,0.21846985306094033,0.22459505240949307,-0.0016538356178363578
156.5,0.20252118857555648,0.20864638792410922,-0.0010337206057388637
157.0,0.18681991057045683,0.19294510991900957,0.00043118591306640086
157.5,0.1712678048814632,0.17739300423001594,0.002357157052846226
158.0,0.15514381693627818,0.16126901628483092,0.0036906510193812914
158.5,0.13885130624381958,0.14497650559237232,0.00449031622615928
159.0,0.1228110836024404,0.12893628295099316,0.004852008113566009
159.5,0.10676964787398596,0.1128948472225387,0.0042427905292983376
160.0,0.09150746586727558,0.09763266521582832,0.0032267081311784657
160.5,0.0769169068403855,0.08304210618893824,0.0015513365488232234
161.0,0.06329958437326473,0.06942478372181747,-0.0005544761410568033
161.5,0.05107936343950532,0.057204562788058064,-0.002673846362746278
162.0,0.04069748737830776,0.046822686726860505,-0.0043175536647517
162.5,0.032076570282134995,0.038201769630687735,-0.005473304658420823
163.0,0.0248239803847963,0.030949179733349045,-0.0064161132523738
163.5,0.018729585050782583,0.024854784399335327,-0.007223330797290914
164.0,0.014282999336167676,0.02040819868472042,-0.00726819858553546
164.5,0.010387910364100163,0.016513109712652907,-0.007513859792578945
165.0,0.007174621508414115,0.013299820856966859,-0.007706609244138251
165.5,0.004958238737007561,0.011083438085560305,-0.00742117885811793
166.0,0.003140211671973781,0.009265411020526524,-0.007160744025765964
166.5,0.0013346740193917548,0.007459873367944498,-0.007230676452317489
167.0,0.000259916773996554,0.006385116122549298,-0.006846172957351639
167.5,-0.0005985298506835755,0.005526669497869168,-0.006467688771281502
168.0,-0.0012710352273682451,0.004854164121184498,-0.006082325433578772
168.5,-0.001847878406279433,0.004277320942273311,-0.00574605516345862
169.0,-0.0023400195271262108,0.0037851798214265328,-0.005442821485857339
169.5,-0.0028317138743363768,0.0032934854742163668,-0.005235680456047999
170.0,-0.0027139959073521004,0.003411203441200643,-0.0044990432433725264
170.5,-0.003021856778972639,0.0031033425695801047,-0.004254843635780419
171.0,-0.0034219946281974422,0.0027032047203553013,-0.004159489942870314
171.5,-0.0032557481651627313,0.0028694511833900122,-0.0035461823363332023
172.0,-0.0036696063714187774,0.002455592977133966,-0.0035549562548024384
172.5,-0.0035379956986805886,0.002587203649872155,-0.0030551225680139045
173.0,-0.0036467273334313695,0.002478472015121374,-0.002828460047945495
173.5,-0.0036427180196627815,0.002482481328889962,-0.002518751033351604
174.0,-0.003990127636229593,0.0021350717123231507,-0.0025877851719994993
174.5,-0.003956534414077018,0.002168664934475726,-0.0023014375394579904
175.0,-0.0038753759202168367,0.002249823428335907,-0.001992037673813085
175.5,-0.003842976241623152,0.0022822231069295914,-0.0017553406660028126
176.0,-0.003302161954504691,0.0028230373940480525,-0.0010340953081498156
176.5,-0.0036083197107926986,0.002516879637760045,-0.0011840558390896288
177.0,-0.0037036475768771255,0.002421551771675618,-0.0011481841689368194
177.5,-0.003434229486808093,0.0026909698617446506,-0.0007736676316798469
178.0,-0.003431555358541447,0.0026936439900112964,-0.0006933714623493935
178.5,-0.0031230727561103937,0.00300212659244235,-0.0003363095946903212
179.0,-0.002908477349227212,0.0032167219993255317,-0.00010383995418318179
179.5,-0.0028646403770886935,0.00326055897146405,-7.448273171423289e-05
180.0,-0.0025914680900950694,0.003533731258457674,0.00015034164935118178
180.5,-0.0022730967295488073,0.0038521026190039363,0.000385248081355565
181.0,-0.002427535561279825,0.0036976637872729186,0.00011137866443289854
181.5,-0.0017342756799861065,0.0043909236685666375,0.000648927329689116
182.0,-0.0013885000478328776,0.004736699300719866,0.0008030548956372797
182.5,-0.0012832610875598439,0.0048419382609929,0.0006818208759807164
183.0,-0.0012232742895974592,0.004901925058955285,0.00048247618651610456
183.5,-0.0004868921113055416,0.005638307237247202,0.000929545596150696
184.0,-0.00048491394305418776,0.005640285405498556,0.0006160383405713144
184.5,-0.00015517332981302936,0.0059700260187397144,0.0006088414874906778
185.0,0.00020388075474869516,0.0063290801033014385,0.0006150770453636394
185.5,5.5713761105588886e-05,0.0061809131096583324,0.00010452809333740074
186.0,0.0003775430556887967,0.00650274240424154,6.13329897702318e-05
186.5,0.0005642739437738404,0.006689473292326584,-0.0001122564973337261
187.0,0.0009148855006489097,0.007040084849201654,-0.00010969472568815933
187.5,0.0010401325863512811,0.0071653319349040245,-0.0003126640749494978
188.0,0.0012320292843390527,0.007357228632891797,-0.00042182376676153707
188.5,0.001360498324580405,0.0074856976731331485,-0.000560390209090207
189.0,0.0017151935279908607,0.007840392876543605,-0.00043253101887074513
189.5,0.001969321136171492,0.008094520484724236,-0.00035973674717780686
190.0,0.002103093461241215,0.00822829280979396,-0.00035752806823171474
190.5,0.0020735644541895275,0.008198763802742271,-0.000465741846976191
191.0,0.0020124644022364185,0.008137663750789162,-0.0005507740773784929
191.5,0.002182487221947916,0.008307686570500659,-0.000349323830201519
192.0,0.002014345704461497,0.00813954505301424,-0.00043132290827982075
192.5,0.0018471432635911607,0.007972342612143904,-0.00045950504606127526
193.0,0.001690246386688057,0.007815445735240801,-0.00042743491475609116
193.5,0.0019547456781198558,0.0080799450266726,7.208479699522333e-05
194.0,0.0019111308094641,0.008036330158016844,0.00030484613864690223
194.5,0.0015548200093177663,0.00768001935787051,0.00026094097601650924
195.0,0.0017908970528935147,0.007916096401446259,0.0008396829655423202
195.5,0.0012829062557623405,0.007408105604315084,0.0006985887748904305
196.0,0.0010661753275893436,0.007191374676142087,0.0008668808993982455
196.5,0.0007456179606224243,0.006870817309175168,0.0009434574248557859
197.0,0.00016963473784305954,0.006294834086395803,0.0007709420204002832
197.5,-0.0005808020429653654,0.005544397305587378,0.00042489582244457404
198.0,-0.0005987682811803107,0.005526431067372433,0.0008073000351807849
198.5,-0.0015461535263430657,0.004579045822209677,0.00025186729342332494
199.0,-0.0020010419461956004,0.004124157402357143,0.00017671192561802447
199.5,-0.0025459117690851767,0.003579287579467567,-3.8226374336806056e-06
200.0,-0.003162242068252228,0.0029629572803005154,-0.0002737660831662564
200.5,-0.003705279590161253,0.0024199197583914906,-0.0004903030141025738
201.0,-0.004129547937605602,0.001995651410947142,-0.000609313441477145
201.5,-0.0043015821079691735,0.00182361724058357,-0.0004981515672701242
202.0,-0.004591742902658356,0.0015334564458943873,-0.0005275139375888094
202.5,-0.005037183332011281,0.0010880160165414625,-0.0007344657984640918
203.0,-0.005339248098110584,0.0007859512504421592,-0.0008199037127629514
203.5,-0.0053646163118476085,0.000760583036705135,-0.0006497619340685942
204.0,-0.005672732325346921,0.0004524670232058225,-0.0007825051801694698
204.5,-0.00545020501703513,0.0006749943315176136,-0.00040358635392621217
205.0,-0.005473505919543594,0.0006516934290091494,-0.00028819826062186494
205.5,-0.005806900112453136,0.00031829923609960793,-0.0004992523284251481
206.0,-0.005605613292185913,0.0005195860563668303,-0.00019058721523234636
206.5,-0.005869829068302424,0.0002553702802503199,-0.00036100115786562303
207.0,-0.005751572337453438,0.00037362701109930514,-0.00016116400054983437
207.5,-0.005880631939664016,0.0002445674088887278,-0.00021956241324768956
208.0,-0.00602489580383862,0.00010030354471412314,-0.00030285197573838064
208.5,-0.005921978334802414,0.00020322101375032983,-0.00014749645895361063
209.0,-0.005835146843276294,0.00029005250527644987,-1.5701747551422746e-05
209.5,-0.005732727975323889,0.0003924713732288542,0.0001251739734336513
210.0,-0.005689901354394098,0.00043529799415864545,0.00020082589680671468
210.5,-0.005982013874020993,0.00014318547453175037,-6.330992674274689e-05
211.0,-0.005847929491728125,0.0002772698568246183,9.459726824870426e-05
211.5,-0.005621977297015236,0.0005032220515375071,0.0003408299103017411
212.0,-0.005950072537089198,0.00017512681146354594,3.0007002279742122e-05
212.5,-0.006091539620798172,3.3659727754571135e-05,-9.673240005360231e-05
213.0,-0.0061251993485527435,0.0,-0.00011780969757792247
213.5,-0.005908406021892442,0.00021679332666030195,0.00010976285671442386
214.0,-0.0055441738244755515,0.000581025524077192,0.0004832622978769903
214.5,-0.005657354894009309,0.0004678444545434344,0.0003780830692093418
215.0,-0.005482441811152957,0.0006427575373997869,0.0005599403036898164
215.5,-0.005523689707586204,0.0006015096409665395,0.0005247530076943316
216.0,-0.005803388444841702,0.0003218109037110414,0.00025037666775906697
216.5,-0.005389360529458726,0.0007358388190940174,0.0006691096099651545
217.0,-0.005511039870261704,0.0006141594782910391,0.0005516180184379318
217.5,-0.00548738653389411,0.0006378128146586337,0.0005790244814452705
218.0,-0.005253121542984094,0.0008720778055686497,0.0008166760535939595
218.5,-0.005395293139145699,0.0007299062094070444,0.000677580449748658
219.0,-0.005188429977833719,0.0009367693707190245,0.000887254943820694
219.5,-0.005072730107348826,0.0010524692412039174,0.0010055391606317078
220.0,-0.005171250878972589,0.0009539484695801547,0.0009094066532411083
