wavelength,absorbance,absorbance_bk,residual_3gauss,Gauss_1,Gauss_2,Gauss_3,Gauss_4,Gauss_fit
117.0,0.828351132639439,0.8325283399990925,-0.013200421088942371,1.8112121559091955e-06,7.58486041064787e-49,0.8457269498758789,3.8754529800707206e-90,0.8457287610880349
117.5,0.8243340739585694,0.8285112813182228,-0.01056556940054787,3.24793840943277e-06,3.0878010093709977e-47,0.8390736027803612,3.063499758498559e-88,0.8390768507187707
118.0,0.8163798750045741,0.8205570823642275,-0.010817060977523996,5.71892296369679e-06,1.1433773702902164e-45,0.8313684244187878,2.2254980925918085e-86,0.8313741433417515
118.5,0.8093349417902195,0.8135121491498729,-0.009167440350932976,9.891496483282433e-06,3.8586587211738173e-44,0.8226696980043227,1.4882458013847757e-84,0.8226795895008059
119.0,0.8065148444107283,0.8106920517703817,-0.0023621784703847792,1.6812032035500335e-05,1.1891514137478815e-42,0.813037418208731,9.17630246122159e-83,0.8130542302407665
119.5,0.7976959325236942,0.8018731398833476,-0.0006877763406456516,2.8090146888178697e-05,3.352892516439203e-41,0.8025328260771051,5.225139139948572e-81,0.8025609162239933
120.0,0.7936236529400523,0.7978008602997058,0.006536737350055888,4.615562463152417e-05,8.665470677765131e-40,0.7912179673250184,2.75195229045308e-79,0.7912641229496499
120.5,0.784288186387131,0.7884653937467845,0.009235508790671476,7.460870421530037e-05,2.0565737921005262e-38,0.7791552762518977,1.342633289454241e-77,0.779229884956113
121.0,0.7757831366947798,0.7799603440544333,0.013434470274411803,0.00011868677248566446,4.490010076098785e-37,0.7664071870075359,6.077054230581726e-76,0.7665258737800215
121.5,0.7611806069454595,0.765357814305113,0.012136169149433385,0.00018587167406272008,9.033471126200706e-36,0.7530357734816169,2.555519868434886e-74,0.7532216451556796
122.0,0.7461648114854138,0.7503420188450672,0.010952939089383662,0.00028666110338872755,1.6776541456824633e-34,0.7391024186522949,9.998458109675116e-73,0.7393890797556836
122.5,0.732977447462251,0.7371546548219045,0.012051616906780915,0.00043552408331059476,2.8807783705461317e-33,0.7246675138318129,3.6446671069140725e-71,0.7251030379151235
123.0,0.7174994083224233,0.7216766156820767,0.011234374211022802,0.000652053584781363,4.581204332301749e-32,0.7097901878862726,1.2394923332503705e-69,0.710442241471054
123.5,0.6989762995819033,0.7031535069415568,0.007663122516476162,0.0009623182412095953,6.757695553685689e-31,0.694528066183871,3.937930167284371e-68,0.6954903844250806
124.0,0.6811836282327811,0.6853608355924345,0.005023377407139096,0.0014003994441093473,9.260573099859188e-30,0.6789370587411862,1.170293286864342e-66,0.6803374581852955
124.5,0.6634176858333692,0.6675948931930227,0.002513636554632326,0.0020100798486497925,1.1807374214111436e-28,0.6630711767897406,3.2574362962824538e-65,0.6650812566383904
125.0,0.6442764056674731,0.6484536130271266,-0.0013753887130224518,0.0028466249658518714,1.4027689455311969e-27,0.6469823767742972,8.502596670997241e-64,0.649829001740149
125.5,0.6275767100668397,0.6317539174264931,-0.0029450853872472482,0.003978572195442721,1.5551168003634242e-26,0.6307204306182976,2.083770161539421e-62,0.6346990028137404
126.0,0.6104598535497133,0.6146370609093668,-0.005185173195831894,0.0054894131562442305,1.6110038702999996e-25,0.6143328209489545,4.8005095699527885e-61,0.6198222341051987
126.5,0.5940596018923081,0.5982368092519615,-0.0071068785518214606,0.007479027941234217,1.5616575338548386e-24,0.5978646598625488,1.0408057402473374e-59,0.605343687803783
127.0,0.5789301621293657,0.5831073694890191,-0.008315967167540017,0.010064706929431524,1.4184572753348683e-23,0.5813586297271276,2.1261380645127596e-58,0.5914233366565591
127.5,0.5653797831209769,0.5695569904806304,-0.008679534285565005,0.01338158030343792,1.2088169522524137e-22,0.5648549444627574,4.096723933582695e-57,0.5782365247661954
128.0,0.5544250626559604,0.5586022700156138,-0.007371330423186939,0.017582270732682644,9.677842444958636e-22,0.5483913297061181,7.453822293046784e-56,0.5659736004388007
128.5,0.5440577669368173,0.5482349742964707,-0.006603639666320826,0.022835593708555865,7.288158521427452e-21,0.5320030202542357,1.281982247209084e-54,0.5548386139627915
129.0,0.5360918979043922,0.5402691052640456,-0.004777822844998503,0.029324154920234265,5.1690866134354026e-20,0.5157227731888099,2.086408363836041e-53,0.5450469281090441
129.5,0.528790509338618,0.5329677166982715,-0.0038539142711057073,0.03724073586357203,3.4569274947610477e-19,0.49958089510580517,3.216436765155868e-52,0.5368216309693772
130.0,0.52497313065874,0.5291503380183934,-0.0012383610530258826,0.046783417159281145,2.1825261713476847e-18,0.48360528191213814,4.701579789557389e-51,0.5303886990714193
130.5,0.5220528892252178,0.5262300965848712,0.00025916511918100404,0.05814946176529977,1.3023342637325428e-17,0.46782146970039046,6.522757534598877e-50,0.5259709314656902
131.0,0.5211358742194552,0.5253130815791086,0.0015323226272213608,0.0715280636804869,7.353083205331595e-17,0.4522526952714003,8.597138072174884e-49,0.5237807589518872
131.5,0.52221446988938,0.5263916772490335,0.0023795556916165195,0.0870921566160853,3.932602580240654e-16,0.4369199649413313,1.0775060269917091e-47,0.5240121215574169
132.0,0.5253994656441335,0.529576673003787,0.0027449776208832155,0.10498956504013164,1.9944511083179964e-15,0.4218421303427701,1.2853696707801258e-46,0.5268316953829038
132.5,0.5312817432736404,0.5354589506332939,0.0030891207496132056,0.12533385987689052,9.601930501873381e-15,0.4070359700067805,1.4607302279655787e-45,0.5323698298836806
133.0,0.5396988541246371,0.5438760614842906,0.003164440090952514,0.14819534579998192,4.392732487761912e-14,0.39251627559331215,1.5828093476381076e-44,0.5407116213933381
133.5,0.5502689842717609,0.5544461916314143,0.0025575999771647595,0.17359264993446274,1.9115759790871774e-13,0.3782959417195956,1.63673701211964e-43,0.5518885916542495
134.0,0.5636269954293277,0.5678042027889811,0.0019327467777920937,0.2014853975914401,7.920619766956373e-13,0.3643860584189569,1.6165467652844407e-42,0.565871456011189
134.5,0.5788952095087097,0.5830724168683631,0.0005079655624621315,0.23176844595781865,3.12794113915375e-12,0.35079600534495436,1.5262179014036374e-41,0.582564451305901
135.0,0.596982140898586,0.6011593482582395,-0.0006422989535482815,0.26426810028310443,1.1784247396979443e-11,0.3375335469168991,1.3785298774689334e-40,0.6018016472117877
135.5,0.6171786172290062,0.6213558245886597,-0.001989763498835395,0.29874066036300984,4.239282303746322e-11,0.3246049276820924,1.1921543160840901e-39,0.6233455880874951
136.0,0.639643501690967,0.6438207090506204,-0.003067800151751565,0.3348735418098773,1.457554638527399e-10,0.31201496724673927,9.878788435105301e-39,0.646888509202372
136.5,0.6638940724696377,0.6680712798292912,-0.003984967593014699,0.3722890927418214,4.793865669727989e-10,0.29976715420109784,7.849847533279856e-38,0.6720562474223059
137.0,0.6910742910967308,0.6952514984563842,-0.0031633314868901863,0.41055108989911465,1.5095717429687271e-09,0.2878637385345881,5.985904760050797e-37,0.6984148299432744
137.5,0.7190861758677969,0.7232633832274503,-0.0022162011570491247,0.44917375772641094,4.555111135366775e-09,0.27630582210297744,4.383566559420373e-36,0.7254795843844994
138.0,0.7495777136599907,0.7537549210196441,0.001028442099646698,0.48763301896567424,1.3182088349712452e-08,0.2650934467722349,3.0850799189416977e-35,0.7527264789199974
138.5,0.7789437072854996,0.783120914645153,0.003515633354401748,0.5253795647532634,3.6615470577866296e-08,0.2542256799220172,2.0881024013526513e-34,0.7796052812907512
139.0,0.8074375369511732,0.8116147443108266,0.0060607155693209736,0.5618532339970082,9.769851023211848e-08,0.2437006970459872,1.3601386409290405e-33,0.8055540287415056
139.5,0.833410750643779,0.8375879580034324,0.007573724023566708,0.5964981221357435,2.506078851022091e-07,0.23351586123623713,8.532063353799163e-33,0.8300142339798657
140.0,0.8561250885592115,0.860302295918865,0.007856075724124056,0.6287778023399286,6.184698017300263e-07,0.22366779938501058,5.157653282717806e-32,0.8524462201947409
140.5,0.8744954516525072,0.8786726590121606,0.006328674967982506,0.6581900395102308,1.4695551056222016e-06,0.21415247497884168,3.0064873409504526e-31,0.8723439840441781
141.0,0.8871768759508979,0.8913540833105513,0.002105053067805951,0.6842804083736836,3.364470905551187e-06,0.20496525739815613,1.6910334666075653e-30,0.8892490302427454
141.5,0.8967581254535818,0.9009353328132352,-0.0018273706634117648,0.7066542886167289,7.427190362944579e-06,0.19610098766955514,9.183359854586027e-30,0.902762703476647
142.0,0.9032204488695574,0.9073976562292109,-0.005159002241293065,0.7249867974695803,1.582035238991725e-05,0.18755404064853373,4.8180716870944003e-29,0.9125566584705039
142.5,0.9070472997325008,0.9112245070921542,-0.007156741806086497,0.7390303271563382,3.253810448352629e-05,0.17931838363741892,2.443586135007917e-28,0.9183812488982407
143.0,0.9083800518801928,0.9125572592398462,-0.0075145079071703424,0.7486194739372704,6.466174257533771e-05,0.17138763146717081,1.1987267477497119e-27,0.9200717671470166
143.5,0.9064516215781104,0.9106288289377639,-0.006923781213648783,0.7536732695545064,0.00012424250454873818,0.1637550980923574,5.6911670700720995e-27,0.9175526101514127
144.0,0.900641244070898,0.9048184514305514,-0.006021104278134515,0.7541947474349534,0.0002309635071831115,0.15641384476654946,2.616475440590921e-26,0.9108395557086859
144.5,0.8910969067951754,0.8952741141548288,-0.004766264584022295,0.7502679884017809,0.000415665456526305,0.1493567248805439,1.1654859107437017e-25,0.9000403787388511
145.0,0.8790703758368702,0.8832475831965236,-0.002106405870072825,0.7420528883932371,0.0007246751147400487,0.1425764255586192,5.032788032395293e-25,0.8853539890665965
145.5,0.8629224802336266,0.86709968759328,3.157421172539365e-05,0.7297779696463845,0.0012246376166504223,0.13606550611851978,2.107915361603369e-24,0.8670681133815547
146.0,0.8436906131198109,0.8478678204794643,0.002312541734143525,0.7137316143409815,0.0020072308950186478,0.12981643350932057,8.567770983142399e-24,0.8455552787453208
146.5,0.8203646435028628,0.8245418508625162,0.0032753285864034476,0.6942521347053451,0.003192772722846338,0.12382161484792127,3.38123669518954e-23,0.8212665222761127
147.0,0.7944176173523747,0.7985948247120281,0.00387289425759485,0.6717171063807866,0.004931396893840182,0.11807342717980654,1.2962685625602167e-22,0.7947219304544333
147.5,0.7640879230271389,0.7682651303867923,0.0017682149117485002,0.6465323839902258,0.007400286891695201,0.11256424459312271,4.829927232316302e-22,0.7664969154750438
148.0,0.732911739970464,0.7370889473301174,-0.0001142455558780231,0.6191211919266875,0.010795538142144446,0.10728646281716363,1.7499385616752056e-21,0.7372031928859955
148.5,0.7030223672546135,0.707199574614267,-0.0002642664340686274,0.589913642653846,0.015317676957277775,0.10223252143721168,6.168052825307994e-21,0.7074638410483356
149.0,0.6756084761898016,0.679785683549455,0.0019030419215906313,0.5593369830042322,0.021150734766117025,0.09739492385751518,2.116016269822992e-20,0.6778826416278644
149.5,0.6490627094084677,0.6532399167681211,0.004230853883689045,0.527806809925337,0.028435997816030494,0.09276625514306452,7.068614795727795e-20,0.649009062884432
150.0,0.6229410660176924,0.6271182733773458,0.005816696585511649,0.49571943460801265,0.03724294431484336,0.08833919786897812,2.300324253454223e-19,0.6213015767918342
150.5,0.5967185828348516,0.600895790194505,0.005802573109265907,0.4634455113689528,0.047541159612550225,0.0841065461037361,7.295828600684458e-19,0.5950932170852391
151.0,0.5705083259574972,0.5746855333171507,0.0041214746566675675,0.43132498801496016,0.059177852996115436,0.08006121764940748,2.256206428233918e-18,0.5705640586604831
151.5,0.5454594810306209,0.5496366883902744,0.0019113562418620056,0.399663380083994,0.07186568740598737,0.07619626465843095,6.8059071579072186e-18,0.5477253321484123
152.0,0.5215943738244505,0.5257715811841039,-0.0006474250939254578,0.36872932410845133,0.08518479942703219,0.0725048827425458,2.0034435190245867e-17,0.5264190062780294
152.5,0.49995105543019425,0.5041282627898477,-0.002206630711514279,0.3387533260265855,0.09860114878954877,0.06898041868522757,5.757443071346944e-17,0.506334893501362
153.0,0.48054524553401856,0.48472245289367205,-0.0023224463865262335,0.3099275906348283,0.1115009317808945,0.06561637686447533,1.6159129626513572e-16,0.4870448992801983
153.5,0.4611467661400074,0.46532397349966087,-0.002727393224712049,0.2824067965599377,0.12323814567627711,0.06240642448815762,4.4311161305290045e-16,0.4680513667243729
154.0,0.44174512526178333,0.4459223326214368,-0.0029217554501123066,0.25630966822785545,0.13319002410433656,0.059344395739355946,1.1876353276828632e-15,0.44884408807154913
154.5,0.42141618019526433,0.4255933875549178,-0.0033655730233740355,0.23172119096588592,0.14081347468808816,0.05642429492431468,3.112381119606019e-15,0.42895896057829186
155.0,0.400856875658713,0.40503408301836646,-0.0029967245855808122,0.20869531670227856,0.14569519219088997,0.05364029871077074,7.978183061325547e-15,0.4080308076039473
155.5,0.37819123154992873,0.3823684389095822,-0.0034652429835507204,0.1872580145793511,0.14758890977415093,0.05098675753961093,2.0011318678432162e-14,0.38583368189313294
156.0,0.355362358438534,0.35953956579818747,-0.002764303692853576,0.16741053196740155,0.1464351412355542,0.04845819628803614,4.9131943700127955e-14,0.36230386949104104
156.5,0.3317720804455272,0.3359492878051807,-0.0015941578108472632,0.14913274566178458,0.142361385696403,0.046049314257722254,1.181195881134506e-13,0.33754344561602795
157.0,0.30844702543824004,0.31262423279789353,0.0008191423532105113,0.1323864993393173,0.13566360654820253,0.04375498455688501,2.7816346680526756e-13,0.311805090444683
157.5,0.28415728237748195,0.28833448973713544,0.002873059126984434,0.11711884063027127,0.1267723370385476,0.04157025294069026,6.418686752465268e-13,0.285461430610151
158.0,0.2600820575845194,0.2642592649441729,0.005295257201912429,0.10326508855837392,0.11620858301230613,0.03949033617012865,1.4517949413735732e-12,0.25896400774226047
158.5,0.23501340251165936,0.23919060987131285,0.006392765582733162,0.09075167890059094,0.10453554543946447,0.03751061994530455,3.219733028358481e-12,0.2327978442885797
159.0,0.2099568207165209,0.21413402807617438,0.006696583449277871,0.07949875066929958,0.0923120374855237,0.0356266564650695,7.003737585654649e-12,0.2074374446268965
159.5,0.18513881247070268,0.18931601983035617,0.00600692867895164,0.06942245102632823,0.08005247844903347,0.03383416166109517,1.4947643254871657e-11,0.18330909115140454
160.0,0.1609616587332452,0.16513886609289868,0.004376109729113092,0.060436948248763084,0.06819679593290894,0.03212901215080356,3.131002607412535e-11,0.1607627563637856
160.5,0.13769920667182867,0.14187641403148216,0.0018212219504729343,0.05245615275451333,0.05709179731203205,0.030507241950077365,6.438646402894682e-11,0.14005519208100922
161.0,0.11689760833162476,0.12107481569127823,-0.0002692773135834353,0.045395154641431346,0.046983899250043364,0.02896503898335908,1.3002785808588198e-10,0.12134409300486167
161.5,0.0975405412987292,0.10171774865838268,-0.0029741549180604676,0.0391713927622239,0.03802176913067274,0.0274987414255957,2.5795079768967485e-10,0.10469190357644315
162.0,0.08087138269242923,0.0850485900520827,-0.00502838724762672,0.03370557517786564,0.03026656771148398,0.026104833907529237,5.028305619335843e-10,0.09007697729970943
162.5,0.06677824737188943,0.07095545473154291,-0.0064539774546316375,0.028922374078364375,0.023707113531365228,0.024779943613028044,9.634169052364503e-10,0.07740943218617455
163.0,0.05481207032216615,0.058989277681819635,-0.007559835645661997,0.02475092013292979,0.018277355085188678,0.023520836294533026,1.8148301287086344e-09,0.06654911332748163
163.5,0.04376355883991519,0.04794076619956867,-0.00938269167468838,0.02112512194544192,0.013873920336521607,0.02232441223022924,3.362064281985037e-09,0.05732345787425705
164.0,0.035896212210978426,0.04007341957063191,-0.009470203074725292,0.017983836059758753,0.010372078314442909,0.021187702144245948,6.1269095917800475e-09,0.0495436226453572
164.5,0.029705918898515635,0.03388312625816912,-0.009134726313511851,0.015270911988054584,0.007639066488129457,0.02010786310904573,1.0986451202322609e-08,0.04301785257168097
165.0,0.023556413988725943,0.027733621348379422,-0.009828017948257772,0.012935135213363706,0.005544310246602384,0.0190821744471553,1.9389515803691037e-08,0.037561639296637195
165.5,0.01981621390730379,0.02399342126695727,-0.009011258574832766,0.010930089214053735,0.003966523291738455,0.018108033647535826,3.368846201700543e-08,0.033004679841790036
166.0,0.016873458116490794,0.021050665476144273,-0.008144301805481757,0.009213955419366227,0.00279800191404466,0.01718295231016439,5.7638050756592956e-08,0.02919496728162603
166.5,0.014095779030769948,0.018272986390423428,-0.007727543423917706,0.007749267754164426,0.0019466127982118568,0.016304552130805127,9.713115972414962e-08,0.026000529814341134
167.0,0.012166719975627007,0.01634392733528049,-0.00696547453682329,0.00650263616700592,0.0013360435057020548,0.01547056093647821,1.6126291759091279e-07,0.02330940187210378
167.5,0.010260859811896752,0.014438067171550233,-0.006590324002369781,0.00544445133606183,0.0009048672170125895,0.014678808780777,2.638400685935004e-07,0.021028391173920014
168.0,0.00847762879817242,0.0126548361578259,-0.006426294714160195,0.0045485806697542226,0.0006049006152765731,0.013927224106943043,4.254800122574501e-07,0.019081130871986096
168.5,0.0077149240559979135,0.011892131415651395,-0.005513673074722222,0.0037920638031884754,0.0003992342296349927,0.013213829985464085,6.764720860632002e-07,0.017405804490373617
169.0,0.007128718404970486,0.011305925764623966,-0.00464689918472385,0.0031548140624782324,0.00026020985567041903,0.01253674043191979,1.0605992793771942e-06,0.015952824949347817
169.5,0.006217160433238752,0.010394367792892233,-0.004288284228406353,0.0026193308394204854,0.00016752423455004004,0.01189415680984772,1.6401374803404926e-06,0.014682652021298585
170.0,0.005332287136065109,0.00950949449571859,-0.004054358339072483,0.002170426491296156,0.000106559764824279,0.011284364322535366,2.5022561352700637e-06,0.013563852834791073
170.5,0.0047945382276534205,0.0089717455873069,-0.003599704507563554,0.0017949702498395582,6.69842158134755e-05,0.01070572859686128,3.7670323561408003e-06,0.012571450094870455
171.0,0.004630474742043778,0.008807682101697259,-0.002877879466246786,0.0014816506790218905,4.162127443074591e-05,0.01015669236159563,5.597252895778484e-06,0.011685561567944045
171.5,0.003555055006608528,0.007732262366262009,-0.0031580467922715794,0.0012207574488087348,2.556937992746828e-05,0.009635772221931864,8.210107865520966e-06,0.010890309158533588
172.0,0.0033589536651820414,0.007536161024835522,-0.0026368018561392474,0.0010039825746881717,1.553400448628077e-05,0.009141555531443982,1.1890770356334704e-05,0.01017296288097477
172.5,0.003122606829270358,0.007299814188923839,-0.0022234663569623324,0.0008242407925965099,9.33468806904622e-06,0.008672697362148938,1.7007703071677613e-05,0.009523280545886172
173.0,0.0027094526009840587,0.00688665996063754,-0.002046344934958656,0.0006755083777497966,5.549609070788816e-06,0.008227917572893572,2.4029335882037186e-05,0.008933004895596196
173.5,0.002324677652300229,0.0065018850119537095,-0.0018935987856510145,0.0005526794561835276,3.264844829826258e-06,0.007805997975875606,3.3541520715762856e-05,0.008395483797604724
174.0,0.0017321918928586363,0.005909399252512117,-0.001995984967686608,0.00045143868288537067,1.901034549546251e-06,0.007405779600748006,4.62649020158009e-05,0.007905384220198725
174.5,0.0018263006418102804,0.006003508001463762,-0.0014549679712473722,0.0003681490549983418,1.095804095641888e-06,0.007026160055436948,6.307105818020217e-05,0.007458475972711134
