wavelength,absorbance,absorbance_bk,residual_3gauss
117.0,0.4637165644859167,0.47362917410412914,-0.007215411247426917
117.5,0.4574092941796401,0.46732190379785254,-0.009750921855466166
118.0,0.4556842410363918,0.46559685065460427,-0.007106394602581334
118.5,0.453236804438844,0.46314941405705645,-0.004619855746405888
119.0,0.45130230865492815,0.4612149182731406,-0.0010905718859449687
119.5,0.44772997269024223,0.45764258230845467,0.001295089222161483
120.0,0.44553833461952547,0.4554509442377379,0.005519199852644263
120.5,0.43831166883844686,0.4482242784566593,0.005128740818540867
121.0,0.43382090356171366,0.4437335131799261,0.007856490101781577
121.5,0.4255680004742028,0.43548061009241523,0.007165278174124046
122.0,0.41843964238818365,0.4283522520063961,0.007901440691145234
122.5,0.41096104719521526,0.4208736568134277,0.008548273315003685
123.0,0.40120265078788186,0.4111152604060943,0.0071322214111792515
123.5,0.38998676230293006,0.3998993719211425,0.004428904063330241
124.0,0.3792788003897504,0.38919141000796287,0.0023535859768886724
124.5,0.3688569592400232,0.37876956885823565,0.0006299625195217429
125.0,0.3589070501519283,0.36881965977014075,-0.0006159654803302161
125.5,0.3485240058261036,0.35843661544431604,-0.002355392664585898
126.0,0.33901153635765446,0.3489241459758669,-0.00335803190883599
126.5,0.33002482759425006,0.3399374372124625,-0.0040502859498732224
127.0,0.3212374847243481,0.33115009434256054,-0.00484896737643703
127.5,0.3133059957052167,0.32321860532342916,-0.005197183445977194
128.0,0.306743036583754,0.31665564620196646,-0.004690949600025418
128.5,0.3013711203022994,0.31128372992051184,-0.0036249189506257218
129.0,0.29597496869455614,0.3058875783127686,-0.003338749458416723
129.5,0.29208624437265984,0.3019988539908723,-0.0024303965896187996
130.0,0.2895290721382669,0.29944168175647934,-0.0012078598779249328
130.5,0.2877684930120228,0.29768110263023523,-0.0003372414207652441
131.0,0.28690304187967025,0.2968156514978827,0.0001540230901738715
131.5,0.2878153414213514,0.29772795103956384,0.001032547080664803
132.0,0.2894708264576428,0.29938343607585527,0.0011629420946780988
132.5,0.29307518075996886,0.3029877903781813,0.0016707023806474819
133.0,0.29780752995412607,0.3077201395723385,0.0016808133862843966
133.5,0.3043210068006756,0.31423361641888803,0.0018234154807574843
134.0,0.3113057655062432,0.32121837512445567,0.0008013013873540697
134.5,0.3203217965087326,0.33023440612694505,0.00022630628687730914
135.0,0.33093471813195946,0.3408473277501719,-0.0002424998872080364
135.5,0.34249480780130287,0.3524074174195153,-0.0011187771756204778
136.0,0.35565375743354216,0.3655663670517546,-0.0015727124695287253
136.5,0.3697498007333872,0.37966241035159964,-0.0020480848220624237
137.0,0.3850995607301487,0.39501217034836117,-0.0019742504375819814
137.5,0.4015702077376964,0.41148281735590886,-0.0011993692223890573
138.0,0.41867143037663834,0.4285840399948508,9.480223195040827e-05
138.5,0.43571828318584416,0.4456308928040566,0.001547862934951183
139.0,0.45265172224276606,0.4625643318609785,0.0034325860756559967
139.5,0.4680077465376842,0.4779203561558966,0.004614873919912554
140.0,0.48078014253025386,0.4906927521484663,0.004407219342276614
140.5,0.4915265861117617,0.5014391957299741,0.0036657976837915496
141.0,0.49900605170589346,0.5089186613241059,0.001419480292207731
141.5,0.5044506104689541,0.5143632200871665,-0.000865857545418236
142.0,0.5082149993454934,0.5181276089637058,-0.0026441321297782094
142.5,0.510338546403835,0.5202511560220474,-0.0037322281673561886
143.0,0.5107247441697312,0.5206373537879436,-0.004134216039517913
143.5,0.5096425577797813,0.5195551673979937,-0.0035425525790077073
144.0,0.505955257206693,0.5158678668249054,-0.0031105611396216037
144.5,0.5002344311621438,0.5101470407803562,-0.0023386338995119438
145.0,0.49276189656237607,0.5026745061805885,-0.0010715062354804683
145.5,0.4828404749458659,0.49275308456407835,-0.00018560201905448714
146.0,0.4718714919433237,0.4817841015615361,0.001491576461807087
146.5,0.457882305080522,0.46779491469873447,0.0017136488861055343
147.0,0.44238201781277114,0.4522946274309836,0.0016777671965351737
147.5,0.42524072778544314,0.4351533374036556,0.000913091181737935
148.0,0.4070432766181917,0.4169558862364041,-0.00035329543179041245
148.5,0.38961371446654086,0.3995263240847533,-0.0006566919985301345
149.0,0.37428936681390734,0.3842019764321198,0.0009972269317907734
149.5,0.3588222398787246,0.368734849496937,0.0020535104971466933
150.0,0.3442759788086629,0.35418858842687534,0.0033247297774716134
150.5,0.32897852121775817,0.3388911308359706,0.00296147603708502
151.0,0.314165847676818,0.32407845729503043,0.0021095466219843706
151.5,0.3000661567680913,0.30997876638630373,0.001000850154903643
152.0,0.28648934269163995,0.2964019523098524,-0.0004588214446600847
152.5,0.27388420350038567,0.2837968131185981,-0.0016434811006015848
153.0,0.2631611374619294,0.2730737470801418,-0.0014038444888967438
153.5,0.25250556753069425,0.2624181771489067,-0.0012803993694278093
154.0,0.241470399576808,0.25138300919502043,-0.0014414274108477398
154.5,0.23020167624581164,0.24011428586402409,-0.0014882035914196012
155.0,0.21865756819205137,0.2285701778102638,-0.0012634817690260758
155.5,0.20570485672137837,0.2156174663395908,-0.0017758251213958465
156.0,0.1928047972083288,0.20271740682654124,-0.0015255818161975243
156.5,0.17955000255696663,0.18946261217517907,-0.0009698638780548385
157.0,0.16667226253402712,0.17658487215223956,0.0004929917403984352
157.5,0.1529934774575548,0.16290608707576723,0.0014900189088410398
158.0,0.13955748841555063,0.14947009803376307,0.0028265214098071034
158.5,0.1252094500229116,0.13512205964112403,0.003088950792299844
159.0,0.11132474853266584,0.12123735815087829,0.003396838663597898
159.5,0.09741834099176243,0.10733095060997487,0.003032184137513147
160.0,0.08383177565570137,0.09374438527391381,0.0021418120524884093
160.5,0.07107612184194513,0.08098873146015757,0.001090037020479162
161.0,0.05907515953919632,0.06898776915740876,-0.00029408685016533986
161.5,0.04789362581657388,0.05780623543478632,-0.001989527041939519
162.0,0.0389290959577749,0.04884170557598734,-0.0025963984372118637
162.5,0.03132113886046976,0.041233748478682206,-0.002934519898961846
163.0,0.023946528408793355,0.0338591380270058,-0.004057313288606451
163.5,0.01865868814620025,0.02857129776441269,-0.004021713397739879
164.0,0.014184234826103419,0.02409684444431586,-0.004000324072568097
164.5,0.010672587373470942,0.02058519699168338,-0.0037392514149858433
165.0,0.007287617746570531,0.017200227364782973,-0.00397232252819921
165.5,0.005040797848421311,0.014953407466633751,-0.0035921642454217265
166.0,0.0034464047491227575,0.013359014367335198,-0.0029976895154656593
166.5,0.001972350138815927,0.011884959757028368,-0.002644650470635744
167.0,0.001025054392983581,0.010937664011196021,-0.0020611177963150186
167.5,-0.0004134694748473384,0.009499140143365102,-0.002210008710560556
168.0,-0.00183372009937268,0.00807888951883976,-0.0025363240762877708
168.5,-0.0027468185289997045,0.007165791089212736,-0.0025141313530959632
169.0,-0.0027991607810291543,0.007113448837183286,-0.0017599960694266621
169.5,-0.0035329450748201336,0.006379664543392307,-0.0017923121747684435
170.0,-0.003919779182282982,0.0059928304359294585,-0.001563810646438733
170.5,-0.004371384767715495,0.005541224850496945,-0.0014713024358845314
171.0,-0.004681450286825429,0.0052311593313870116,-0.0012967210694040275
171.5,-0.005710804181995049,0.0042018054362173915,-0.001891633323588265
172.0,-0.005693098264783674,0.004219511353428767,-0.0014823943781664692
172.5,-0.005988145116956035,0.003924464501256405,-0.0014230727904183662
173.0,-0.00604294961712983,0.003869660001082611,-0.001156165469265529
173.5,-0.006109254861849763,0.0038033547563626775,-0.0009299037536077363
174.0,-0.006795834463467788,0.0031167751547446524,-0.0013503653584965277
174.5,-0.006669462219399392,0.0032431473988130486,-0.0009823083803993972
175.0,-0.006879089109703705,0.0030335205085087356,-0.0009732449584708798
175.5,-0.00705577598762749,0.002856833630584951,-0.0009532928324629689
176.0,-0.006918700857482779,0.0029939087607296615,-0.0006411155070983926
176.5,-0.007146011490664336,0.0027665981275481043,-0.0007147152350969578
177.0,-0.006804956367000123,0.0031076532512123176,-0.00024150667277466568
177.5,-0.006822747098978365,0.0030898625192340755,-0.0001491204688717912
178.0,-0.0069367811106530826,0.002975828507559358,-0.00017556279789833745
178.5,-0.007171089624302864,0.0027415199939095766,-0.00034559421981014736
179.0,-0.006858882198499339,0.003053727419713102,6.8014897421551056e-06
179.5,-0.006551391824072774,0.003361217794139667,0.00032965407286583443
180.0,-0.006514100433335463,0.0033985091848769775,0.00035686774648352156
180.5,-0.006600846220293891,0.0033117633979185494,0.00023420254817403414
181.0,-0.006150903946712018,0.0037617056715004227,0.0006222816334178795
181.5,-0.005698276507044464,0.0042143331111679765,0.0009873823501891357
182.0,-0.005858177142909245,0.004054432475303195,0.0007150274054633079
182.5,-0.0056077925059350026,0.004304817112277438,0.0008292815288264092
183.0,-0.005359262744108272,0.004553346874104169,0.0009198132836775218
183.5,-0.006101782999183647,0.0038108266190287933,-1.8598407905152242e-07
184.0,-0.005822446880408962,0.0040901627378034785,8.515061577740301e-05
184.5,-0.00570206255618091,0.00421054706203153,-1.4801782687512074e-06
185.0,-0.005348415562970106,0.004564194055242335,0.00013612966444706727
185.5,-0.005019767292413888,0.004892842325798553,0.00024412022137671255
186.0,-0.005691979082927468,0.004220630535284973,-0.0006486636714574251
186.5,-0.005275148876578224,0.004637460741634216,-0.00044743079530980365
187.0,-0.00474819652812563,0.005164413090086811,-0.00012616403773615253
187.5,-0.0049461969008277205,0.00496641271738472,-0.0005150962059097047
188.0,-0.004519777563827519,0.005392832054384921,-0.00026025154098180056
188.5,-0.004672173889851277,0.005240435728361164,-0.0005606391647109072
189.0,-0.004151361098128642,0.005761248520083799,-0.0001605116995010182
189.5,-0.004223445488817183,0.0056891641293952576,-0.0003228656397055154
190.0,-0.004256502937056533,0.005656106681155908,-0.0004133668321868785
190.5,-0.004076318148497066,0.005836291469715375,-0.00025615106818065343
191.0,-0.004112740437170361,0.00579986918104208,-0.0002802134233505834
191.5,-0.003906567834096629,0.0060060417841158115,-2.6297477088449255e-05
192.0,-0.004533237248741641,0.0053793723694708,-0.0005705628783806288
192.5,-0.003855050579806903,0.006057559038405538,0.00022323678942011427
193.0,-0.003983371345691412,0.005929238272521029,0.00024162809448785745
193.5,-0.004043724871391849,0.005868884746820592,0.00035640669494285855
194.0,-0.004405493723538176,0.005507115894674264,0.00019504477421189177
194.5,-0.003897307531025679,0.006015302087186761,0.0009254128624465842
195.0,-0.00410589188204671,0.00580671773616573,0.0009570463568034475
195.5,-0.004546222744281873,0.005366386873930568,0.0007711055364571697
196.0,-0.005542822989959864,0.004369786628252576,3.918819521615043e-05
196.5,-0.005667248367865924,0.0042453612503465165,0.00018594388988010975
197.0,-0.0056507357270688995,0.004261873891143541,0.0004765140943571904
197.5,-0.006076896918812214,0.0038357126994002268,0.0003239127455231124
198.0,-0.006439465157324126,0.0034731444608883145,0.00023133914023653127
198.5,-0.007135666361333559,0.0027769432568788815,-0.000201149807137421
199.0,-0.007163303662260658,0.0027493059559517826,2.6304114208844202e-05
199.5,-0.00787847100175987,0.002034138616452571,-0.000444339552098856
200.0,-0.00801477129223471,0.0018978383259777298,-0.0003482376612096642
200.5,-0.008353166637729106,0.0015594429804833346,-0.0004675247571362131
201.0,-0.008415040732951894,0.0014975688852605466,-0.00032439610396819887
201.5,-0.008822058759632562,0.0010905508585798782,-0.0005409957365643463
202.0,-0.009145061045474735,0.0007675485727377061,-0.0006883437583042112
202.5,-0.00843739526038306,0.0014752143578293814,0.0001802942826529205
203.0,-0.009268656099451648,0.0006439535187607922,-0.0005043712336567276
203.5,-0.009422375439167678,0.0004902341790447625,-0.0005253833032347487
204.0,-0.009827789235493482,8.48203827189583e-05,-0.0008113432370909435
204.5,-0.009600372133948178,0.0003122374842642623,-0.00047698115671206283
205.0,-0.00986816945177833,4.444016643411104e-05,-0.0006495209191963161
205.5,-0.009683486247777203,0.00022912337043523752,-0.0003803986484890771
206.0,-0.00957408397034683,0.0003385256478656111,-0.00019648504913114407
206.5,-0.009384926321956671,0.0005276832962557692,5.8146977642509396e-05
207.0,-0.009569810759388052,0.0003427988588243884,-6.94270489444958e-05
207.5,-0.00979408528162184,0.00011852433659060094,-0.00024371416536778827
208.0,-0.009654493833104237,0.0002581157851082039,-6.066013262826561e-05
208.5,-0.009599752324176508,0.0003128572940359325,3.1766862370270646e-05
209.0,-0.009408162274343311,0.0005044473438691292,0.00025595758972602665
209.5,-0.00991260961821244,0.0,-0.00022033968989296953
210.0,-0.009030326679041769,0.0008822829391706716,0.00068621806281392
210.5,-0.008921298230598838,0.0009913113876136026,0.0008161634135811808
211.0,-0.008909719564858186,0.0010028900533542544,0.0008457623983672125
211.5,-0.009047661154984296,0.0008649484632281441,0.000723352762350338
212.0,-0.009275737776109764,0.0006368718421026764,0.0005086783591475186
212.5,-0.008686231149370798,0.0012263784688416428,0.0011097704125985664
213.0,-0.009079757689645097,0.0008328519285673436,0.0007262838681546358
213.5,-0.008576388319448276,0.0013362212987641647,0.0012383817164721784
214.0,-0.008963863631324828,0.0009487459868876124,0.0008585238863568349
214.5,-0.009205331491754957,0.0007072781264574838,0.0006237335241434345
215.0,-0.008877411283816467,0.0010351983343959738,0.0009575363988962515
215.5,-0.008586760280297801,0.0013258493379146395,0.001253397900709132
216.0,-0.008568907173596095,0.001343702444616346,0.0012758925830814488
216.5,-0.008465189371622397,0.0014474202465900431,0.0013837696320585205
217.0,-0.008602220574947632,0.0013103890432648087,0.0012504877500558815
217.5,-0.008429895116931586,0.001482714501280855,0.001426212984083968
218.0,-0.008238494240701567,0.0016741153775108736,0.0016207143417727805
218.5,-0.00811716700021274,0.0017954426179997013,0.0017448845289679644
219.0,-0.00813268881069557,0.0017799208075168702,0.0017319828066651064
219.5,-0.007872895074380312,0.0020397145438321284,0.001994202565228541
220.0,-0.007890491921834894,0.0020221176963775463,0.001978861599173068
