wavelength,absorbance,absorbance_bk,residual_3gauss
117.0,0.828351132639439,0.8325283399990925,-0.013200421107168236
117.5,0.8243340739585694,0.8285112813182228,-0.010565569418148124
118.0,0.8163798750045741,0.8205570823642275,-0.010817060994484096
118.5,0.8093349417902195,0.8135121491498729,-0.0091674403672386
119.0,0.8065148444107283,0.8106920517703817,-0.002362178486020383
119.5,0.7976959325236942,0.8018731398833476,-0.0006877763555933614
120.0,0.7936236529400523,0.7978008602997058,0.006536737335818832
120.5,0.784288186387131,0.7884653937467845,0.009235508777175383
121.0,0.7757831366947798,0.7799603440544333,0.01343447026169775
121.5,0.7611806069454595,0.765357814305113,0.012136169137557107
122.0,0.7461648114854138,0.7503420188450672,0.010952939078419988
122.5,0.732977447462251,0.7371546548219045,0.012051616896828876
123.0,0.7174994083224233,0.7216766156820767,0.011234374202210518
123.5,0.6989762995819033,0.7031535069415568,0.007663122508965614
124.0,0.6811836282327811,0.6853608355924345,0.005023377401131013
124.5,0.6634176858333692,0.6675948931930227,0.0025136365503692915
125.0,0.6442764056674731,0.6484536130271266,-0.0013753887152554434
125.5,0.6275767100668397,0.6317539174264931,-0.0029450853871232363
126.0,0.6104598535497133,0.6146370609093668,-0.005185173192987835
126.5,0.5940596018923081,0.5982368092519615,-0.007106878545866557
127.0,0.5789301621293657,0.5831073694890191,-0.00831596715806926
127.5,0.5653797831209769,0.5695569904806304,-0.00867953427217838
128.0,0.5544250626559604,0.5586022700156138,-0.007371330405512744
128.5,0.5440577669368173,0.5482349742964707,-0.006603639644043202
129.0,0.5360918979043922,0.5402691052640456,-0.004777822817889632
129.5,0.528790509338618,0.5329677166982715,-0.0038539142390584535
130.0,0.52497313065874,0.5291503380183934,-0.0012383610160875413
130.5,0.5220528892252178,0.5262300965848712,0.00025916516077739704
131.0,0.5211358742194552,0.5253130815791086,0.0015323226730314943
131.5,0.52221446988938,0.5263916772490335,0.002379555740965822
132.0,0.5253994656441335,0.529576673003787,0.0027449776728580844
132.5,0.5312817432736404,0.5354589506332939,0.003089120803065337
133.0,0.5396988541246371,0.5438760614842906,0.003164440144516667
133.5,0.5502689842717609,0.5544461916314143,0.0025576000292908407
134.0,0.5636269954293277,0.5678042027889811,0.001932746826792564
134.5,0.5788952095087097,0.5830724168683631,0.0005079656065731797
135.0,0.596982140898586,0.6011593482582395,-0.0006422989160952408
135.5,0.6171786172290062,0.6213558245886597,-0.001989763469732786
136.0,0.639643501690967,0.6438207090506204,-0.003067800132531162
136.5,0.6638940724696377,0.6680712798292912,-0.003984967584962362
137.0,0.6910742910967308,0.6952514984563842,-0.003163331490966259
137.5,0.7190861758677969,0.7232633832274503,-0.002216201173817267
138.0,0.7495777136599907,0.7537549210196441,0.0010284420700752417
138.5,0.7789437072854996,0.783120914645153,0.0035156333124080064
139.0,0.8074375369511732,0.8116147443108266,0.0060607155157959
139.5,0.833410750643779,0.8375879580034324,0.007573723959906742
140.0,0.8561250885592115,0.860302295918865,0.007856075652203587
140.5,0.8744954516525072,0.8786726590121606,0.006328674890102803
141.0,0.8871768759508979,0.8913540833105513,0.0021050529866216694
141.5,0.8967581254535818,0.9009353328132352,-0.0018273707449882881
142.0,0.9032204488695574,0.9073976562292109,-0.00515900232020694
142.5,0.9070472997325008,0.9112245070921542,-0.007156741879273731
143.0,0.9083800518801928,0.9125572592398462,-0.007514507971708384
143.5,0.9064516215781104,0.9106288289377639,-0.006923781266922502
144.0,0.900641244070898,0.9048184514305514,-0.006021104318011727
144.5,0.8910969067951754,0.8952741141548288,-0.004766264609033177
145.0,0.8790703758368702,0.8832475831965236,-0.002106405879580331
145.5,0.8629224802336266,0.86709968759328,3.157421738031463e-05
146.0,0.8436906131198109,0.8478678204794643,0.0023125417535514448
146.5,0.8203646435028628,0.8245418508625162,0.003275328617069584
147.0,0.7944176173523747,0.7985948247120281,0.003872894296030882
147.5,0.7640879230271389,0.7682651303867923,0.0017682149536882852
148.0,0.732911739970464,0.7370889473301174,-0.00011424551513639081
148.5,0.7030223672546135,0.707199574614267,-0.00026426639920784645
149.0,0.6756084761898016,0.679785683549455,0.0019030419464255433
149.5,0.6490627094084677,0.6532399167681211,0.004230853895407782
150.0,0.6229410660176924,0.6271182733773458,0.0058166965825113826
150.5,0.5967185828348516,0.600895790194505,0.005802573091696295
151.0,0.5705083259574972,0.5746855333171507,0.004121474626464949
151.5,0.5454594810306209,0.5496366883902744,0.0019113562025218078
152.0,0.5215943738244505,0.5257715811841039,-0.0006474251378209006
152.5,0.49995105543019425,0.5041282627898477,-0.0022066307549480912
153.0,0.48054524553401856,0.48472245289367205,-0.002322446424776692
153.5,0.4611467661400074,0.46532397349966087,-0.002727393254038424
154.0,0.44174512526178333,0.4459223326214368,-0.0029217554682806623
154.5,0.42141618019526433,0.4255933875549178,-0.0033655730299342324
155.0,0.400856875658713,0.40503408301836646,-0.0029967245818550148
155.5,0.37819123154992873,0.3823684389095822,-0.0034652429723469047
156.0,0.355362358438534,0.35953956579818747,-0.0027643036779646524
156.5,0.3317720804455272,0.3359492878051807,-0.0015941577964355136
157.0,0.30844702543824004,0.31262423279789353,0.0008191423632367689
157.5,0.28415728237748195,0.28833448973713544,0.0028730591294998664
158.0,0.2600820575845194,0.2642592649441729,0.0052952571949365645
158.5,0.23501340251165936,0.23919060987131285,0.006392765565587849
159.0,0.2099568207165209,0.21413402807617438,0.006696583422543756
159.5,0.18513881247070268,0.18931601983035617,0.006006928644258391
160.0,0.1609616587332452,0.16513886609289868,0.004376109688819602
160.5,0.13769920667182867,0.14187641403148216,0.0018212219073018565
161.0,0.11689760833162476,0.12107481569127823,-0.0002692773568972878
161.5,0.0975405412987292,0.10171774865838268,-0.0029741549590630856
162.0,0.08087138269242923,0.0850485900520827,-0.00502838728435015
162.5,0.06677824737188943,0.07095545473154291,-0.006453977485703963
163.0,0.05481207032216615,0.058989277681819635,-0.007559835670328294
163.5,0.04376355883991519,0.04794076619956867,-0.009382691692760521
164.0,0.035896212210978426,0.04007341957063191,-0.009470203086483345
164.5,0.029705918898515635,0.03388312625816912,-0.009134726319580934
165.0,0.023556413988725943,0.027733621348379422,-0.009828017949480662
165.5,0.01981621390730379,0.02399342126695727,-0.00901125857215384
166.0,0.016873458116490794,0.021050665476144273,-0.00814430179985149
166.5,0.014095779030769948,0.018272986390423428,-0.007727543416222421
167.0,0.012166719975627007,0.01634392733528049,-0.006965474527839775
167.5,0.010260859811896752,0.014438067171550233,-0.006590323992742035
168.0,0.00847762879817242,0.0126548361578259,-0.006426294704393622
168.5,0.0077149240559979135,0.011892131415651395,-0.005513673065190322
169.0,0.007128718404970486,0.011305925764623966,-0.004646899175682805
169.5,0.006217160433238752,0.010394367792892233,-0.004288284220013289
170.0,0.005332287136065109,0.00950949449571859,-0.004054358331404689
170.5,0.0047945382276534205,0.0089717455873069,-0.0035997045006364876
171.0,0.004630474742043778,0.008807682101697259,-0.00287787946002974
171.5,0.003555055006608528,0.007732262366262009,-0.0031580467867004056
172.0,0.0033589536651820414,0.007536161024835522,-0.002636801851126221
172.5,0.003122606829270358,0.007299814188923839,-0.002223466352403356
173.0,0.0027094526009840587,0.00688665996063754,-0.002046344930738273
173.5,0.002324677652300229,0.0065018850119537095,-0.0018935987816457306
174.0,0.0017321918928586363,0.005909399252512117,-0.0019959849637670923
174.5,0.0018263006418102804,0.006003508001463762,-0.0014549679672800206
175.0,0.0016356852782514024,0.0058128926379048835,-0.0012385733427140843
175.5,0.001228470751315223,0.005405678110968704,-0.0012761898454188543
176.0,0.0016115890003599923,0.005788796360013474,-0.0005590991740031187
176.5,0.0009680912264851838,0.005145298586138665,-0.0009030711009651807
177.0,0.0017992531966935276,0.005976460556347009,0.00019382737155088092
177.5,0.0014495187123824147,0.005626726072035896,7.625945165878716e-05
178.0,0.0010279489955517768,0.005205156355205258,-0.00014684562412667357
178.5,0.0010143473969455655,0.005191554756599047,3.9237059383107065e-06
179.0,0.0008538137212879011,0.005031021080941382,-2.6886181966364123e-05
179.5,0.00154005404143638,0.005717261401089861,0.0007538206193881316
180.0,0.0013316666700311144,0.0055088740296845955,0.0006040860937242395
180.5,0.0010383207947749751,0.005215528154428457,0.00033319094133712687
181.0,0.0017342106686328647,0.005911418028286345,0.0010152229027389926
181.5,0.0016521394414174284,0.005829346801070909,0.0008832706658182645
182.0,0.00137840703981166,0.005555614399465141,0.0005244129404569581
182.5,0.0016122334714165664,0.005789440831070048,0.0006392289271060503
183.0,0.0019269660787824055,0.006104173438435887,0.0008030735882801742
183.5,0.0016302855011654867,0.005807492860818967,0.00032632777843195904
184.0,0.0019149571222448376,0.006092164481898319,0.0004051661020522141
184.5,0.0020976385122014607,0.006274845871854942,0.00036035023934542255
185.0,0.002268695984101844,0.006445903343755326,0.0002869995118956366
185.5,0.002468625179435582,0.006645832539089063,0.00023093387044239872
186.0,0.00204864994882679,0.006225857308480271,-0.00045083446192472655
186.5,0.0027610003668401568,0.006938207726493638,4.378174842285809e-08
187.0,0.0028597410493581056,0.007036948409011586,-0.00015607087127041033
187.5,0.002814204401260296,0.006991411760913778,-0.00044354194433906223
188.0,0.0026316093177842456,0.006808816677437726,-0.0008490140281385691
188.5,0.002899551858602522,0.007076759218256004,-0.0007790972059677978
189.0,0.003282255913708784,0.007459463273362265,-0.0005642830625531593
189.5,0.0032934473717628815,0.0074706547314163626,-0.0006862213838202394
190.0,0.0037374495558410254,0.007914656915494506,-0.0003367532438718606
190.5,0.0036690842400713486,0.00784629159972483,-0.0004581108266901619
191.0,0.0038000353732352498,0.007977242732888731,-0.00033662298830210505
191.5,0.003593544131569041,0.007770751491222522,-0.0005080557093530107
192.0,0.0035386499959502668,0.007715857355603747,-0.00048337221627526954
192.5,0.004026874955294417,0.008204082314947899,0.00012798320266969344
193.0,0.003946184925348514,0.008123392285001994,0.00021210913722053207
193.5,0.003976561625918878,0.008153768985572359,0.00044630807142954226
194.0,0.003666054019507884,0.007843261379161366,0.0003752486605629775
194.5,0.0036285035703311607,0.007805710929984642,0.0006088179374093708
195.0,0.003406074824102287,0.007583282183755768,0.0006847890255633014
195.5,0.003032401900805354,0.0072096092604588356,0.0006321090255438826
196.0,0.0027298865827274444,0.0069070939423809255,0.0006683371257593445
196.5,0.0031639385988130207,0.007341145958466502,0.001454018459485091
197.0,0.001962954958697227,0.006140162318350708,0.0006127862295332714
197.5,0.0015248314843452659,0.005702038843998747,0.0005379818005612925
198.0,0.00118557731651825,0.005362784676171731,0.0005613610440341078
198.5,0.0004500548715454219,0.004627262231198903,0.00018390788686141555
199.0,-0.00012323493280274255,0.004053972426850738,-3.9325715504729894e-05
199.5,-0.00094363875062092,0.003233568609032561,-0.0005206697065247407
200.0,-0.001407534386279138,0.002769672973374343,-0.0006590009960986184
200.5,-0.0015145751737220387,0.0026626321859314424,-0.00045598541406242487
201.0,-0.002156544086987455,0.0020206632726660263,-0.0008049434966637997
201.5,-0.002030538033235894,0.002146669326417587,-0.0004040582909493411
202.0,-0.0026092448215003683,0.0015679625381531128,-0.0007266852630978173
202.5,-0.002491121011724141,0.0016860863479293401,-0.0003715700947065372
203.0,-0.0026404856006170523,0.0015367217590364288,-0.00030298699761934704
203.5,-0.003125857369960725,0.0010513499896927562,-0.0005891232275098727
204.0,-0.0034432108677450446,0.0007339964919084365,-0.0007253828646269188
204.5,-0.003704719256834008,0.00047248810281947306,-0.0008231764784176585
205.0,-0.0035341779646468527,0.0006430293950066284,-0.0005053892955359501
205.5,-0.003434631558502306,0.000742575801151175,-0.00027404928804856325
206.0,-0.003797250238009143,0.00037995712164433804,-0.000519240858999839
206.5,-0.0036749910833081224,0.0005022162763453587,-0.00029279881973841694
207.0,-0.0033975534692150975,0.0007796538904383836,7.670813719648853e-05
207.5,-0.003954390149100461,0.00022281721055302049,-0.00039905702969751016
208.0,-0.004177207359653481,0.0,-0.0005507186835530889
208.5,-0.0038893431086718055,0.00028786425098167564,-0.00020058143302631882
209.0,-0.003465707917428261,0.00071149944222522,0.00027741834740804426
209.5,-0.0040414794546791595,0.0001357279049743216,-0.00025098946690804897
210.0,-0.003656809604565089,0.0005203977550883921,0.0001748797990891608
210.5,-0.003640718981225301,0.0005364883784281802,0.0002267692267835889
211.0,-0.003410477673732248,0.0007667296859212333,0.0004880997321274138
211.5,-0.003754240112333284,0.0004229672473201971,0.00017133700048324227
212.0,-0.0036939379044427768,0.00048326945521070435,0.00025510169272913847
212.5,-0.0031923738437005275,0.0009848335159529536,0.0007770793756872932
213.0,-0.003640203595664332,0.0005370037639891492,0.00034704337588126535
213.5,-0.0035502619864525744,0.0006269453732009067,0.00045253337945391715
214.0,-0.003311517684627411,0.00086568967502607,0.0007049057820876317
214.5,-0.003840898936309543,0.00033630842334393804,0.0001875129650305938
215.0,-0.003659885960928544,0.000517321398724937,0.00037911576390765633
215.5,-0.0033079714190166875,0.0008692359406367936,0.0007404276264559005
216.0,-0.0034743790795372037,0.0007028282801162774,0.0005824002679692448
216.5,-0.003288987586705308,0.0008882197729481729,0.0007753038847997963
217.0,-0.003013041319051419,0.001164166040602062,0.001058019913039385
217.5,-0.0036081027720495313,0.0005691045876039498,0.00046909189639751366
218.0,-0.003546421995287251,0.0006307853643662299,0.000536358939447647
218.5,-0.0029642037801700543,0.0012130035794834268,0.0011236910660324046
219.0,-0.0029547686037624007,0.0012224387558910804,0.0011378304989570337
219.5,-0.0030906316996828502,0.0010865756599706309,0.0010063145155207603
220.0,-0.003194074520950569,0.000983132838702912,0.0009069056414135765
