wavelength,absorbance,absorbance_bk,residual_3gauss,Gauss_1,Gauss_2,Gauss_3,Gauss_4,Gauss_fit
117.0,0.37459019126917786,0.38033826355597555,-0.0077164404618237925,4.504522113733679e-07,3.206497937606927e-48,0.388054253565588,1.723748235588811e-116,0.38805470401779935
117.5,0.3706936348394219,0.3764417071262196,-0.008280392638007505,8.303525146526416e-07,1.2102818055118257e-46,0.3847212694117125,5.054271416043406e-114,0.3847220997642271
118.0,0.3720757760247592,0.3778238483115569,-0.0030910123855651395,1.5016827915478424e-06,4.163271612826409e-45,0.3809133590143305,1.3277964196730276e-111,0.38091486069712205
118.5,0.3669541285221485,0.37270220080894617,-0.003958610291449616,2.665490147334789e-06,1.3077524189040031e-43,0.37665814561024846,3.132091448804444e-109,0.3766608111003958
119.0,0.36409537878528847,0.36984345107208616,-0.002145137112312401,4.64553864890258e-06,3.75827661890435e-42,0.37198394264574963,6.647949290350353e-107,0.37198858818439856
119.5,0.3618877672837081,0.3676358395705058,0.0007083461381777179,7.952944043130033e-06,9.899991512337816e-41,0.3669195404882849,1.2723033968288182e-104,0.36692749343232806
120.0,0.3587545484239861,0.36450262071078376,0.002995237055170241,1.3378926631567572e-05,2.3947231231464915e-39,0.36149400472898197,2.1999987540899635e-102,0.3615073836556135
120.5,0.35440108815481103,0.3601491604416087,0.004390548553642737,2.2124872410175917e-05,5.328725227183474e-38,0.3557364870155558,3.4438334963088213e-100,0.355758611887966
121.0,0.349603966136436,0.3553520384232337,0.005640008795225138,3.5980502234846143e-05,1.0926827545471793e-36,0.3496760491257737,4.889784375780813e-98,0.34971202962800857
121.5,0.34488784228298863,0.3506359145697863,0.007236851560516122,5.7562231968400904e-05,2.0682610790950377e-35,0.3433415007773018,6.309372950002499e-96,0.3433990630092702
122.0,0.3378209146836458,0.34356898697044347,0.006717111059740266,9.062443879270491e-05,3.6197445177353108e-34,0.3367612514719105,7.411982250663309e-94,0.3368518759107032
122.5,0.3307489852309115,0.3364970575177092,0.006393425088108362,0.00014045593793959586,5.8669989380500084e-33,0.32996317649166124,7.941803213227299e-92,0.33010363242960084
123.0,0.3224221899513651,0.3281702622381628,0.004981393148776936,0.0002143720870820382,8.820795775296479e-32,0.32297449700230385,7.775135370039904e-90,0.3231888690893859
123.5,0.31409215315399147,0.31984022544078916,0.0036962422223220104,0.0003223091435281933,1.2320423644312045e-30,0.31582167407493894,6.967090339790508e-88,0.31614398321846715
124.0,0.3074137393201096,0.3131618116069073,0.00415397385713645,0.0004775214388863999,1.6011307715328077e-29,0.30853031631088446,5.723788973683912e-86,0.30900783774977086
124.5,0.2973308364522354,0.3030789087390331,0.0012564347083179328,0.000697373384543195,1.9388916626973718e-28,0.301125100646172,4.318395578897841e-84,0.30182247403071516
125.0,0.28893793730483214,0.2946860095916298,5.209649255960569e-05,0.0010042072783844553,2.1909559574436544e-27,0.29362970582068576,2.996885351591621e-82,0.2946339130990702
125.5,0.28062638930853334,0.28637446159533103,-0.0011185509719248699,0.0014262546455724153,2.313560065240024e-26,0.2860667579216835,1.916080279787126e-80,0.2874930125672559
126.0,0.27205319500248054,0.27780126728927823,-0.002655064128011808,0.0019985440658222245,2.2860979580994176e-25,0.2784577873514678,1.1303819135430858e-78,0.28045633141729004
126.5,0.26401837366652414,0.26976644595332183,-0.0038204937183478616,0.0027637431484704694,2.1167145765324723e-24,0.27082319652319925,6.162574071863076e-77,0.2735869396716697
127.0,0.2573065739711868,0.26305464625798447,-0.003900449204600309,0.0037728579064726106,1.8388935291366924e-23,0.26318223755611214,3.1093378497631987e-75,0.2669550954625848
127.5,0.2506790882146411,0.25642716050143877,-0.0042115396480779665,0.005085700928926042,1.5008536905314157e-22,0.2555529992205907,1.4540254896322417e-73,0.26063870014951673
128.0,0.24477699304744427,0.25052506533424196,-0.004198369331501861,0.006771032292333881,1.1522742831831876e-21,0.24795240237340993,6.310888853860701e-72,0.2547234346657438
128.5,0.23975779498774016,0.24550586727453788,-0.003796611741328476,0.008906275893010606,8.331923291832877e-21,0.24039620312285576,2.545812206040045e-70,0.24930247901586636
129.0,0.23594084259720713,0.24168891488400485,-0.0027868084836829843,0.011576720396571339,5.681079647486553e-20,0.2328990029711165,9.558056957868555e-69,0.24447572336768783
129.5,0.2328817437214555,0.23862981600825323,-0.0017185785750191418,0.01487412938698037,3.6570049286855707e-19,0.225474265196292,3.344243337068046e-67,0.24034839458327237
130.0,0.23037919304483936,0.23612726533163708,-0.0009017814034370242,0.018894709977675977,2.22500440514361e-18,0.21813433675739813,1.0918840501183824e-65,0.2370290467350741
130.5,0.22879076603051476,0.23453883831731248,-8.805940770820198e-05,0.023736422693121168,1.2809657935366345e-17,0.2108904750318995,3.330880514835343e-64,0.23462689772502068
131.0,0.22786435676366124,0.23361242905045895,0.0003638938524492541,0.029495656472383953,6.985950624806412e-17,0.20375287872562567,9.50577075849278e-63,0.2332485351980097
131.5,0.22821302728295473,0.23396109956975245,0.0009670383590641429,0.036263338882195344,3.612970345314066e-16,0.1967307223284926,2.5409253494084003e-61,0.2329940612106883
132.0,0.22978550094981476,0.23553357323661248,0.001580779784774028,0.04412059992631285,1.7738366300375171e-15,0.18983219352552383,6.369307800212702e-60,0.23395279345183845
132.5,0.23196882681939368,0.2377168991061914,0.0015182116291521386,0.05313415446659106,8.276042336283747e-15,0.18306453301043993,1.4989840393341745e-58,0.23619868747703926
133.0,0.23553274005295485,0.24128081233975257,0.0014951269530928957,0.06335160919865346,3.673089529097766e-14,0.1764340761879695,3.315922434509949e-57,0.23978568538665967
133.5,0.24035371432300856,0.24610178660980628,0.001358558922469555,0.07479693139675976,1.5522815133837836e-13,0.16994629629042174,6.90243230075938e-56,0.24474322768733672
134.0,0.24657238449625227,0.25232045678305,0.001248273535223443,0.08746633477376613,6.252602978869181e-13,0.16360584847343512,1.3535309804739105e-54,0.25107218324782654
134.5,0.25352260839129087,0.25927068067808856,0.0005292260287767525,0.1013248401521358,2.402784802989652e-12,0.15741661449477323,2.503055662521316e-53,0.2587414546493118
135.0,0.26197525113608566,0.26772332342288335,3.782207264563242e-05,0.11630375372326344,8.817308853297175e-12,0.15138174761815695,4.369859899864929e-52,0.2676855013502377
135.5,0.2713356905616274,0.27708376284842506,-0.0007192279614536834,0.13229927335780178,3.0925685324874953e-11,0.14550371742115129,7.209552491474803e-51,0.27780299080987875
136.0,0.28212514876547606,0.28787322105227375,-0.0010835183050644792,0.14917238503182811,1.0376510169893784e-10,0.13978435422174498,1.1252081077008823e-49,0.28895673935733823
136.5,0.2931926736259132,0.2989407459127109,-0.002034296935813029,0.16675014964285453,3.333576764726994e-10,0.13422489287231176,1.6629232036232966e-48,0.30097504284852394
137.0,0.30586322088428325,0.31161129317108094,-0.0020431327333428895,0.18482840917618135,1.0262833172190519e-09,0.12882601570195915,2.329424655759282e-47,0.31365442590442383
137.5,0.31985922908008096,0.32560730136687865,-0.0011564611635965227,0.20317586508146654,3.0302920218365815e-09,0.12358789441871662,3.0958229081173354e-46,0.3267637625304752
138.0,0.33413789256574405,0.33988596485254174,-0.0001636805808878372,0.22153940603338443,8.588498795312917e-09,0.11851023081154635,3.907149617504255e-45,0.3400496454334296
138.5,0.3487606219859057,0.3545086942727034,0.0012658825648602656,0.2396504922054371,2.3383706784360505e-08,0.11359229611869921,4.687031499409513e-44,0.3532428117078431
139.0,0.36290562018878647,0.36865369247558416,0.002588318719177418,0.2572323435941864,6.120872097003347e-08,0.10883296895349938,5.349079786754049e-43,0.36606537375640674
139.5,0.37581073729599634,0.38155880958279403,0.003320248932892067,0.2740076347961878,1.5415250032896185e-07,0.10423077170121388,5.812799990761384e-42,0.37823856064990197
140.0,0.3873277438587807,0.3930758161455784,0.0035851661670316393,0.2897063708465592,3.738107096990692e-07,0.09978390532127786,6.019923033187447e-41,0.38949064997854677
140.5,0.3966887695157603,0.402436841802558,0.0028720760069429474,0.30407360984055753,8.734471801626259e-07,0.09549028250787737,5.9465148412020095e-40,0.39956476579561506
141.0,0.4038099992256768,0.4095580715124745,0.0013318361199933237,0.3168767082433297,1.9679703959903834e-06,0.09134755917875545,5.6073750867297946e-39,0.40822623539248115
141.5,0.4089783316024092,0.4147264038892069,-0.0005428318738220916,0.3279117928598368,4.2786259660437945e-06,0.08735316427722614,5.051666767437594e-38,0.415269235763029
142.0,0.4126836280897041,0.4184317003765018,-0.0020908169555862166,0.33700920700275994,8.982443516120885e-06,0.08350432788581197,4.351443136121108e-37,0.420522517332088
142.5,0.4150018280994967,0.4207499003862944,-0.003104162877821337,0.3440377341282195,1.8221474156811447e-05,0.07979810766173943,3.586693390238757e-36,0.42385406326411573
143.0,0.4162113939123324,0.4219594661991301,-0.003215153982824015,0.34890746613447277,3.574043259271464e-05,0.07623141361488868,2.831064096943475e-35,0.4251746201819541
143.5,0.4156863699567217,0.4214344422435194,-0.0030056679007745557,0.351571251362453,6.782752414400661e-05,0.07280103125769691,2.1415360737157483e-34,0.42444011014429395
144.0,0.41341961285880496,0.41916768514560265,-0.0024853060604207444,0.3520247248555727,0.00012462318627456465,0.06950364316417619,1.5536055001248024e-33,0.4216529912060234
144.5,0.40925893674935854,0.4150070090361562,-0.001855651280374404,0.3503049867215657,0.00022182461335577862,0.06633584898160917,1.0817054514444388e-32,0.41686266031653063
145.0,0.4035413199195873,0.409289392206385,-0.0008755824010022173,0.3464880501663684,0.000382740497196972,0.06329418394382177,7.233315583988799e-32,0.4101649746073872
145.5,0.39593194094379447,0.40168001323059216,-2.088482200984787e-05,0.34068522637751864,0.0006405357358503319,0.06037513593923307,4.648654259349429e-31,0.401700898052602
146.0,0.38688938523338967,0.39263745752018736,0.0009832934837730178,0.3330386472263013,0.0010403556198431917,0.05757516119026991,2.8732542551851422e-30,0.39165416403641434
146.5,0.3758487442500152,0.3815968165368129,0.0013491161029597354,0.32371614793060366,0.0016408538999520181,0.0548906986032975,1.7091010521102578e-29,0.38024770043385314
147.0,0.3631986077630841,0.3689466800498818,0.001208250063124583,0.31290574042103586,0.0025145067157028534,0.0523181828500185,9.790224861726325e-29,0.3677384299867572
147.5,0.3492479810571428,0.35499605334394047,0.0005860664885162792,0.30080990497924187,0.0037460256337347683,0.049854056242447535,5.404155074894476e-28,0.3544099868554242
148.0,0.3344059703158379,0.3401540426026356,-0.0004088936170641433,0.28763991417712226,0.0054282425784575265,0.04749477946411994,2.876383793026994e-27,0.34056293621969974
148.5,0.3206965213194239,0.3264445936062216,-5.769826398521749e-05,0.2736103810901705,0.007655069559809809,0.045236841220226476,1.4771284750365368e-26,0.3265022918702068
149.0,0.30755526560116186,0.31330333788795955,0.0007808271588592985,0.25893419530706435,0.010511548553077609,0.043076766868958276,7.323278797268057e-26,0.31252251072910026
149.5,0.2951141690693732,0.3008622413561709,0.0019715700584418405,0.24381797762944765,0.014061567572753285,0.04101112609552818,3.507254086318761e-25,0.29889067129772906
150.0,0.28259504082059206,0.28834311310738975,0.002513981366578155,0.22845814971605416,0.018334442335551957,0.03903653968920549,1.6235172790276724e-24,0.2858291317408116
150.5,0.270209569638992,0.2759576419257897,0.0024581553655009802,0.2130376802597332,0.023312120818290465,0.03714968548226508,7.268144328248973e-24,0.2734994865602887
151.0,0.25855182865506526,0.26429990094186295,0.0023099466451548256,0.19772353630651335,0.0289191144820924,0.03534730350810238,3.148555784587658e-23,0.2619899542967081
151.5,0.24643202247480137,0.2521800947615991,0.0008717887218091525,0.18266483840765405,0.035017267198224476,0.033626200433911374,1.3205662770292779e-22,0.25130830603978993
152.0,0.23552656305962089,0.2412746353464186,-0.00010738036463944778,0.16799169244734322,0.041407069942397234,0.03198325332131761,5.365439077634459e-22,0.24138201571105805
152.5,0.2254499767925468,0.23119804907934452,-0.0008684444793212176,0.15381464985063412,0.04783643094178753,0.03041541276624409,2.1128931362743324e-21,0.23206649355866574
153.0,0.2161683238901511,0.2219163961769488,-0.0012447681457962434,0.14022473174213979,0.05401672711353253,0.02891970546707272,8.068702083291673e-21,0.22316116432274505
153.5,0.20761684637124211,0.21336491865803983,-0.0010670415419683776,0.12729394148405215,0.059644782448052165,0.02749323626790389,2.989552800859428e-20,0.2144319602000082
154.0,0.19872484954018524,0.20447292182698296,-0.0011648231358688532,0.1150761836059535,0.06442837163548182,0.026133189721416476,1.0752355358024342e-19,0.2056377449628518
154.5,0.18924327598911647,0.1949913482759142,-0.0015661370602323699,0.10360850498720098,0.06811214913543046,0.024836831213515122,3.7558674755196635e-19,0.19655748533614656
155.0,0.17966550246285667,0.1854135747496544,-0.001601215112452592,0.09291257566833297,0.0705007065041243,0.02360150768964973,1.2747842943467342e-18,0.18701478986210698
155.5,0.16962380770121074,0.17537187998800846,-0.001524912673560197,0.08299633117504802,0.07147581346611487,0.02242464802040579,4.206197231519077e-18,0.17689679266156866
156.0,0.15897879530820755,0.16472686759500527,-0.001438336867288087,0.07385570503327267,0.07100573638730251,0.021303763041718188,1.349807961310743e-17,0.16616520446229335
156.5,0.1482747045973068,0.1540227768841045,-0.0008357463136955678,0.06547638854800358,0.06914568934693684,0.02023644530285962,4.2148587386091154e-17,0.15485852319780008
157.0,0.13729149172877833,0.14303956401557605,-4.610630338949817e-05,0.05783556427201349,0.06602973749373757,0.01922036855321435,1.2812043724877864e-16,0.14308567031896555
157.5,0.12666488576524665,0.13241295805204437,0.0014004897764625934,0.05090356933599267,0.061855611942820174,0.018253286996768522,3.7928903556286594e-16,0.13101246827558177
158.0,0.11533708436624639,0.12108515665304409,0.0022419442125108102,0.0446454544702505,0.056864723629038605,0.01733303434124307,1.0940252280249264e-15,0.11884321244053328
158.5,0.10396386723222131,0.10971193951901902,0.0029119330939103433,0.03902241373599168,0.051320070022246284,0.016457522666867612,3.0759187483775024e-15,0.10680000642510867
159.0,0.09224324619896157,0.09799131848575927,0.0028888155078694994,0.033993068413327956,0.045484693426613265,0.01562474113794011,8.433247435618226e-15,0.09510250297788977
159.5,0.0810345123196364,0.08678258460643411,0.002832298629032476,0.02951459596647295,0.03960293543235149,0.014832754578554633,2.2556204781776817e-14,0.08395028597740163
160.0,0.06997809117521572,0.07572616346201343,0.002216700001858446,0.02554370140863108,0.03388606011927112,0.014079701932193888,5.887948145881316e-14,0.07350946346015498
160.5,0.059527595073974315,0.06527566736077202,0.0013714033647087565,0.022037433675384077,0.028503035697244185,0.013363794623284934,1.5005868263809484e-13,0.06390426399606326
161.0,0.04968753899476522,0.05543561128156293,0.00022193201095908888,0.018953853799242373,0.02357651063368184,0.012683314837306092,3.7353119442720824e-13,0.05521367927060384
161.5,0.040801036354648525,0.046549108641446235,-0.0009234745742161057,0.016252564817781964,0.0191834046623732,0.012036613734598679,9.08505612204599e-13,0.04747258321566234
162.0,0.032960350651618835,0.038708422938416545,-0.0019679232755593287,0.013895115534500966,0.015359121065618885,0.011422109611696157,2.159865995492845e-12,0.040676346213975874
162.5,0.026202539090239303,0.03195061137703701,-0.0028371574689655815,0.011845291597317342,0.012104191220950954,0.010838286022713355,5.020940146060986e-12,0.03478776884600259
163.0,0.020497074399117104,0.02624514668591481,-0.003500014758220874,0.010069307988180924,0.009392163572382761,0.010283689872154783,1.141721288723931e-11,0.029745161444135686
163.5,0.01587851007313229,0.021626582359929997,-0.003843963411665048,0.008535917055317236,0.007177699201482136,0.009756929489391384,2.5404285438904136e-11,0.025470545771595045
164.0,0.011895983097033106,0.017644055383830813,-0.004233139496132066,0.007216445790652111,0.00540407633996095,0.009256672694017611,5.533220846813847e-11,0.02187719487996288
164.5,0.008948957035721041,0.014697029322518748,-0.004178970558191622,0.006084775274368556,0.0040095796279904184,0.008781644860340306,1.1801108812275965e-10,0.01887599988071037
165.0,0.00629909757600566,0.012047169862803367,-0.004333242134784091,0.0051172741802383275,0.002932510582456429,0.008330626988352088,2.4654061092968156e-10,0.016380411997587458
165.5,0.0040803894413345,0.009828461728132207,-0.00448146228634237,0.004292697049966509,0.0021147726721096284,0.00790245378771452,5.046839198933415e-10,0.014309924014474578
166.0,0.0024188920697410673,0.008166964356538775,-0.00442524749293303,0.0035920567786049797,0.0015041422777132306,0.007496011780507204,1.0126463899088133e-09,0.012592211849471804
166.5,0.0012106523246344272,0.006958724611432135,-0.004205427793765884,0.0029984794682775457,0.001055433516882355,0.007110237427791604,1.9922465152710004e-09,0.01116415240519802
167.0,9.366929893802284e-05,0.005841741585735731,-0.0041302337166778435,0.002497048552614486,0.0007308076211556412,0.006744115284386652,3.8442567945246685e-09,0.009971975302413574
167.5,-0.0006691989893980896,0.005078873297399618,-0.0038919326733607134,0.0020746439056391367,0.0004994786016607483,0.006396676185653031,7.277807415396801e-09,0.008970805970760332
168.0,-0.001230205534393663,0.004517866752404045,-0.00360596300002147,0.0017197805516716868,0.0003370402092447008,0.006066995469536038,1.3521973090488801e-08,0.008123829752425515
168.5,-0.002143864943584676,0.0036042073432130317,-0.0037970566687304834,0.001422450603022988,0.00022459750844161354,0.005754191236613849,2.466386506512617e-08,0.007401264011943515
169.0,-0.0027849478826386604,0.0029631244041590475,-0.0038161536057338477,0.0011739711780190077,0.00014784000488587176,0.005457422650441385,4.417654663071679e-08,0.006779278009892895
169.5,-0.003001662044362576,0.0027464102424351318,-0.0034925454018055447,0.0009668402951918417,9.614934451440271e-05,0.005175888280064353,7.772447007974937e-08,0.0062389556442406765
170.0,-0.0033112357403172737,0.002436836546480434,-0.003328521721714258,0.000794602097514884,6.17973205068716e-05,0.004908824486199529,1.3436397340644024e-07,0.005765358268194692
170.5,-0.003617734216954552,0.002130338069843156,-0.003216377332265623,0.0006517222270974701,3.926103189677988e-05,0.0046555038522379235,2.2829087660585118e-07,0.005346715402108779
171.0,-0.004212588580236452,0.0015354837065612555,-0.0034382665738123923,0.0005334737371700004,2.4661558010441263e-05,0.004415233660918545,3.8132427466082485e-07,0.004973750280373648
171.5,-0.004463019546039274,0.0012850527407584338,-0.0033540810301751914,0.00043583358443989584,1.5319417861547342e-05,0.004187354417245085,6.263513870977411e-07,0.004639133770933625
172.0,-0.004868048848181368,0.00088002343861634,-0.0034570293032158,0.0003553894802461938,9.412856779890264e-06,0.0039712384179699765,1.0119868360792068e-06,0.00433705274183214
172.5,-0.004723209967085521,0.001024862319712187,-0.0030380134829465603,0.0002892566825561648,5.722039593434281e-06,0.0037662883677499455,1.6087127592029143e-06,0.004062875802658747
173.0,-0.004857825602255823,0.0008902466845418849,-0.0029226523680628016,0.00023500417223693706,3.442085092262531e-06,0.003571936041881237,2.516753394249942e-06,0.0038128990526046865
173.5,-0.004976177429390433,0.0007718948574072749,-0.0028122609748908126,0.00019058956635337835,2.0493831665412853e-06,0.0033876409953492357,3.8758874289325775e-06,0.0035841558322980875
