wavelength,absorbance,absorbance_bk,residual_3gauss,Gauss_1,Gauss_2,Gauss_3,Gauss_4,Gauss_fit
117.0,0.6288763119010727,0.6232546084360093,-0.012766383054826136,5.668290359329192e-07,9.197956232725813e-30,0.6360204246617995,2.080117176931674e-59,0.6360209914908355
117.5,0.625726354319406,0.6201046508543426,-0.011654305888634364,1.0475700282338565e-06,8.298418445375088e-29,0.6317579091729487,3.793973732851913e-58,0.631758956742977
118.0,0.6269046059424259,0.6212829024773625,-0.0054464921537736855,1.899480395374163e-06,7.078408459935553e-28,0.6267274951507408,6.538285199874169e-57,0.6267293946311362
118.5,0.6205129961484755,0.6148912926834121,-0.006080472759763533,3.3805550176586914e-06,5.715124075074712e-27,0.620968384888158,1.0658206405065905e-55,0.6209717654431757
119.0,0.6169871419952504,0.611365438530187,-0.003161567034873025,5.907707749252542e-06,4.3728728966883743e-26,0.6145210978573108,1.6452491745619264e-54,0.61452700556506
119.5,0.6135916420904308,0.6079699386253674,0.0005326374371448228,1.0141448032001371e-05,3.174306431305299e-25,0.6074271597401906,2.4075329783979476e-53,0.6074373011882226
120.0,0.6084950955970516,0.6028733921319882,0.0031274784336680073,1.71079905673039e-05,2.1885167796688827e-24,0.5997288057077529,3.34318935412498e-52,0.5997459136983202
120.5,0.6053286547203809,0.5997069512553175,0.008209880422206828,2.8371364763840687e-05,1.4346206019469816e-23,0.5914686994683468,4.410042236663962e-51,0.5914970708331106
121.0,0.5970150397183484,0.5913933362532849,0.008657396487135927,4.627047002929503e-05,8.950899612460488e-23,0.5826896692961198,5.531621140533365e-50,0.582735939766149
121.5,0.5883106885359761,0.5826889850709127,0.009180285063076221,7.423805096415167e-05,5.320892716039908e-22,0.5734344619568723,6.604122490545033e-49,0.5735087000078365
122.0,0.5794523190186465,0.5738306155535831,0.009967880564529796,0.00011721981400876183,3.0166574925535507e-21,0.5637455151750445,7.511841785614301e-48,0.5638627349890533
122.5,0.5707829759148508,0.5651612724497874,0.011314311574629587,0.00018221184236806223,1.632738720194469e-20,0.5536647490327897,8.148031827775358e-47,0.5538469608751578
123.0,0.5591292059585725,0.5535075024935091,0.009995193546464276,0.00027893248567418427,8.444468893249462e-20,0.5432333764613706,8.435897759466837e-46,0.5435123089470448
123.5,0.5461085176274744,0.540486814162411,0.007574441000375964,0.0004206403849231469,4.177334427110843e-19,0.5324917327771118,8.343931933367886e-45,0.532912373162035
124.0,0.5329730201109572,0.5273513166458937,0.005247089931740945,0.0006251026851768454,1.978310584945698e-18,0.521479124028976,7.891345132407466e-44,0.5221042267141528
124.5,0.5213844150136859,0.5157627115486225,0.004613311390575525,0.0009157063958361522,8.977307591607404e-18,0.5102336937622108,7.142394026405134e-43,0.511149400158047
125.0,0.5073742571642876,0.5017525536992242,0.0016375548719522737,0.001322691165147829,3.9069104487720674e-17,0.49879230766212407,6.191737902509713e-42,0.500114998827272
125.5,0.49401393568049506,0.48839223221543165,-0.0006826869212113729,0.00188446371379388,1.6320268983574689e-16,0.487190455422849,5.14532600719199e-41,0.489074919136643
126.0,0.48070431537219466,0.47508261190713125,-0.0030284907527784455,0.00264893357274095,6.549228482658599e-16,0.4754621690871681,4.101971676215805e-40,0.4781111026599097
126.5,0.4682720469339176,0.4626503434688542,-0.004664401430155896,0.003674787875205071,2.5268316726736876e-15,0.4636399570238025,3.139729012042906e-39,0.4673147448990101
127.0,0.4565668745864137,0.4509451711213503,-0.005842183095291609,0.005032601569872804,9.380636165201469e-15,0.45175475264675974,2.3091088063309548e-38,0.4567873542166419
127.5,0.44573166718242313,0.4401099637173597,-0.006531574028183218,0.006805660809455671,3.353488753512685e-14,0.43983587693605375,1.6329585591775843e-37,0.44664153774554294
128.0,0.4355064843494549,0.42988478088439147,-0.0071165968800306345,0.009090363975481927,1.1553172794578282e-13,0.4279110137888246,1.111228291557605e-36,0.4370013777644221
128.5,0.42662660813390646,0.42100490466884305,-0.006997351985352063,0.011996059440513587,3.838570241484812e-13,0.4160061972132977,7.281834267941174e-36,0.4280022566541951
129.0,0.4189445299463462,0.41332282648128277,-0.006467167025100917,0.015644184131678764,1.2308874667292153e-12,0.40414580937347405,4.5982548040011074e-35,0.4197899935063837
129.5,0.4131129640218293,0.4074912605567659,-0.005027912036139004,0.02016658409034357,3.8120423330835075e-12,0.39235258849874927,2.800005634194477e-34,0.4125191725929049
130.0,0.4075005113235209,0.4018788078584575,-0.004471766353921824,0.02570292851275213,1.1410132361962784e-11,0.380647645688217,1.6452464765430808e-33,0.4063505742123793
130.5,0.40377463794013657,0.39815293447507316,-0.0032947272988946286,0.03239717207789245,3.303039261294622e-11,0.36905048966304493,9.334597997613887e-33,0.4014476617739678
131.0,0.4015138348504977,0.3958921313854343,-0.00208000255999391,0.04039307530218479,9.253731874711797e-11,0.3575790585507061,5.117209876866146e-32,0.3979721339454282
131.5,0.4001156404574738,0.39449393699241037,-0.0015846775252045808,0.049828856445739596,2.510637191105388e-10,0.34624975782081163,2.7121786918515135e-31,0.39607861451761495
132.0,0.4007866278945228,0.3951649244294594,-0.0007436968925002563,0.06083111712909525,6.600737906715297e-10,0.3350775035327906,1.3906556279298437e-30,0.39590862132195964
132.5,0.4033347179408829,0.39771301447581947,0.00012899038646502214,0.07350825230701472,1.6827288270301557e-09,0.3240757700996109,6.90240275692555e-30,0.39758402408935445
133.0,0.407596170720298,0.4019744672552346,0.0007742032888917727,0.08794361798593635,4.162120879013472e-09,0.3132566418182856,3.3183188161097975e-29,0.40120026396634284
133.5,0.4136436535690527,0.4080219501039893,0.0012022912945081066,0.10418878134892992,9.994342984225694e-09,0.30263086746620826,1.5460567036590892e-28,0.4068196588094812
134.0,0.42103970698535353,0.4154180035202901,0.000952850411847006,0.12225721248437542,2.3312419836594555e-08,0.29220791731164786,6.985048099324748e-28,0.4144651531084431
134.5,0.430681676288765,0.4250599728237016,0.0009450876388885088,0.1421187903961932,5.2852206754684964e-08,0.28199604193641314,3.0619081338027682e-27,0.4241148851848131
135.0,0.4418231735125974,0.436201470047534,0.0005035356494172971,0.16369548555331573,1.1652668254837262e-07,0.27200233231811843,1.302959217272948e-26,0.4356979343981167
135.5,0.4547393728479616,0.4491176693828982,2.609285600541078e-05,0.18685854587430134,2.499843303090595e-07,0.2622327806682611,5.385396621970102e-26,0.4490915765268928
136.0,0.46924968988121674,0.4636279864161533,-0.0004923309626568839,0.21142745370255606,5.221063264362841e-07,0.2526923415699277,2.16311861369467e-25,0.4641203173788102
136.5,0.48540608813618313,0.4797843846711197,-0.0007725114742879735,0.23717084097383326,1.062166464096773e-06,0.24338499300511035,8.447762398337533e-25,0.4805568961454077
137.0,0.5026967527702804,0.49707504930521695,-0.0010503066833176256,0.26380945318335747,2.1058991409302098e-06,0.23431379690603624,3.2093730042467006e-24,0.4981253559885346
137.5,0.5222675780560914,0.516645874591028,0.00013969843807137838,0.29102114613312674,4.071112497449077e-06,0.22548095890733238,1.1866697613053122e-23,0.5165061761529566
138.0,0.5419075784214031,0.5362858749563397,0.0009425202807924471,0.31844778991208544,7.677747319581223e-06,0.21688788701614223,4.2724840923672274e-23,0.5353433546755473
138.5,0.5623961429239374,0.556774439458874,0.002521208711211975,0.34570384958984335,1.4132202515471894e-05,0.20853524895530323,1.498571426756509e-22,0.554253230747662
139.0,0.5822910321505597,0.5766693286854963,0.003834581091861633,0.3723863188464788,2.5400776807294512e-05,0.2004230279703485,5.122975319168665e-22,0.5728347475936346
139.5,0.6013199664777736,0.5956982630127102,0.005017477376151769,0.3980856074887332,4.4601223495248155e-05,0.19255057692433006,1.707702820428362e-21,0.5906807856365585
140.0,0.617310793995798,0.6116890905307346,0.004298945403442556,0.42239693140726947,7.65431847599571e-05,0.1849166705352626,5.553170586749523e-21,0.6073901451272921
140.5,0.6313872997721457,0.6257655963070823,0.0031858678120131323,0.4449317271610776,0.000128445694576487,0.17751955563941502,1.762373921741896e-20,0.6225797284950692
141.0,0.6422691581956903,0.6366474547306269,0.0007509903385702899,0.4653286142500021,0.00021085075236714618,0.17035699938968732,5.460964031188984e-20,0.6358964643920566
141.5,0.6502470690904514,0.644625365625388,-0.0024031591955088194,0.4832634555156275,0.00033873398322545756,0.16342633532204381,1.6528636116938685e-19,0.6470285248208968
142.0,0.6568928965696332,0.6512711931045698,-0.004444216638378906,0.49845811744593166,0.0005327850525564887,0.15672450724446055,4.888547235933045e-19,0.6557154097429487
142.5,0.661915173441323,0.6562934699762596,-0.00546303587558683,0.5106876033788318,0.0008207915508672585,0.15024811092214735,1.4134252965640011e-18,0.6617565058518464
143.0,0.6651598858624268,0.6595381823973634,-0.005479581954956125,0.5197853185026683,0.0012390122995317742,0.14399343355011943,3.996574213169344e-18,0.6650177643523195
143.5,0.6666702876869731,0.6610485842219097,-0.004387600895392585,0.5256463202637099,0.0018333738341238036,0.13795649101946844,1.1055878832940738e-17,0.6654361851173023
144.0,0.6653179698088256,0.6596962663437622,-0.003325576257451557,0.5282285052381809,0.0026602743658191166,0.13213306299721372,2.993326870666894e-17,0.6630218426012138
144.5,0.6614442429080354,0.655822539442972,-0.0020347066789844215,0.5275517778879733,0.0037867423826495675,0.12651872585133353,7.93473498154089e-17,0.6578572461219564
145.0,0.6550732473466497,0.6494515438815863,-0.0006423554601814319,0.5236953327157988,0.005289683163216808,0.121108883462752,2.060093406500701e-16,0.6500938993417678
145.5,0.6475027813505108,0.6418810778854473,0.0019350605867504145,0.5167932549350804,0.007253966388917028,0.1158987959746989,5.240507447759411e-16,0.6399460172986969
146.0,0.6376350958032195,0.6320133923381561,0.004331913296858003,0.5070287027892685,0.009769169714891626,0.11088360653713675,1.3066054566077849e-15,0.6276814790412981
146.5,0.6251431620803631,0.6195214586152997,0.005911217624012699,0.4946269752556845,0.012924899625635339,0.10605836610996404,3.1941118021974736e-15,0.613610240991287
147.0,0.6090000817682145,0.6033783783031511,0.005307772150556889,0.47984779144863476,0.016804758310407196,0.10141805639354463,7.658385907370822e-15,0.5980706061525942
147.5,0.5902315365847877,0.5846098331197243,0.003195907147083843,0.46297711313463535,0.02147920187906542,0.09695761095892168,1.8015654145753006e-14,0.5814139259726404
148.0,0.5698590657495991,0.5642373622845357,0.00024887510594795437,0.4443188309028019,0.026997721622822386,0.09267193465292178,4.1593925809901886e-14,0.5639884871785877
148.5,0.5500522835876833,0.5444305801226199,-0.0016929022934645266,0.424186609969601,0.03338095109104887,0.08855592135534034,9.427914422761922e-14,0.5461234824160844
149.0,0.5333838140547421,0.5277621105896787,-0.00035194569965346645,0.40289615613372715,0.04061342998874923,0.084604470166646,2.0986660028849128e-13,0.5281140562893322
149.5,0.5164896606204339,0.5108679571553705,0.0006595222015723934,0.3807581191054552,0.04863781574270603,0.08081250010517783,4.589301293271191e-13,0.5102084349537981
150.0,0.4989647582669985,0.4933430548019351,0.0007449828834604211,0.35807180243695924,0.05735130608774422,0.07717496339278508,9.861805316643384e-13,0.49259807191847466
150.5,0.48130801478480234,0.47568631131973893,0.000274741466977535,0.33511979954749604,0.06660491289590513,0.07368685740727715,2.0830586521036773e-12,0.4754115698527614
151.0,0.4627552841913447,0.4571335807262813,-0.0015792948598169487,0.3121636265342633,0.07620601366846019,0.07034323537904853,4.326213994717546e-12,0.45871287558609825
151.5,0.44441679476272866,0.43879509129766525,-0.003708822788567101,0.2894403768268408,0.0859243213427206,0.06713921590783405,8.836896704987753e-12,0.44250391408623235
152.0,0.42676467689420056,0.42114297342913715,-0.005588485936816878,0.2671603820294542,0.09550108594492954,0.06406999137381213,1.7758177586758648e-11,0.426731459365954
152.5,0.4118139106632864,0.40619220719822297,-0.005105468551021841,0.24550582873135263,0.10466101166749624,0.06113083531527844,3.511746420464484e-11,0.4112976757492448
153.0,0.3985329835666208,0.3929112801015574,-0.003162163264019413,0.22463025337356254,0.1131260810807917,0.058317108842864285,6.835828156268494e-11,0.3960734433655768
153.5,0.38575881468622875,0.38013711122116534,-0.0007762334009935867,0.20465881669605696,0.12063026163721861,0.05562426615786947,1.310138767661309e-10,0.3809133446221589
154.0,0.3724201423426109,0.3667984388775475,0.0011273773448908786,0.185689245703811,0.12693395634182975,0.053047859239721336,2.472944999874467e-10,0.3656710615326566
154.5,0.35794866279592885,0.35232695933086544,0.002113028101727421,0.16779332400674657,0.13183706499765918,0.050583541764906446,4.598258388263586e-10,0.350213931229138
155.0,0.3429663284525888,0.3373446249875254,0.002909097793506621,0.15101881008554854,0.1351896439489915,0.0482270723169926,8.424861524247361e-10,0.33443552719401876
155.5,0.32704231151314744,0.32142060804808403,0.003155247987525922,0.13539166662816288,0.13689937496646815,0.04597431694457617,1.521350924563729e-09,0.3182653600605581
156.0,0.3100239396592043,0.30440223619414086,0.0027271409352704334,0.12091849160014265,0.1369353498292276,0.04382125112119205,2.70830811068443e-09,0.30167509525887043
156.5,0.2926390595358892,0.2870173560708258,0.00233632758541924,0.10758905216682452,0.1353280104060194,0.04176396115842584,4.754136815517816e-09,0.28468102848540655
157.0,0.2754367301517861,0.2698150266867227,0.0024721221018553785,0.09537883502456924,0.13216541620863068,0.03979864512069287,8.230974527782679e-09,0.2673429045848673
157.5,0.25875962488087006,0.25313792141580665,0.003378447030206122,0.08425154024950225,0.12758630679028535,0.037921613287408604,1.40584043290197e-08,0.24975947438560053
158.0,0.24106716606594203,0.23544546260087862,0.003384034585944634,0.07416145967234528,0.12177065644381889,0.03612928820558628,2.3693183514936278e-08,0.23206142801493398
158.5,0.22317617304379364,0.21755446957873023,0.003151966359903835,0.06505569440106582,0.11492856503424133,0.03441820437327753,3.9410241718758305e-08,0.2144025032188264
159.0,0.20420380565570756,0.19858210219064415,0.0016324664155422108,0.056876178937290967,0.1072883845337719,0.03278500759171,6.471232907473059e-08,0.19694963577510194
159.5,0.18562114840538205,0.17999944494031864,0.0001264450206809875,0.049561490998529294,0.09908494998171781,0.031226454021513337,1.0491787723022684e-07,0.17987299991963765
160.0,0.1669940300051951,0.1613723265401317,-0.001964366235158027,0.0430484364205987,0.09054867938722994,0.029739408976031945,1.679914291437083e-07,0.16333669277528973
160.5,0.1490375435054672,0.14341584004040378,-0.004074827464337294,0.03727340723850405,0.0818961490854071,0.028320845482428993,2.656984009216946e-07,0.14749066750474107
161.0,0.13201594735729574,0.12639424389223233,-0.006070094020883182,0.03217351818862427,0.07332256189970418,0.026967842639090762,4.151856962917881e-07,0.13246433791311552
161.5,0.11682751475359406,0.11120581128853065,-0.007156273865743967,0.027687532476079864,0.06499632777129682,0.025677583795727894,6.41111170047192e-07,0.11836208515427461
162.0,0.10374690933926484,0.09812520587420143,-0.007135509224411335,0.023756591802956948,0.057055790248050395,0.024447354580575308,9.784670301147082e-07,0.10526071509861276
162.5,0.09197591746292946,0.08635421399786605,-0.006854544402901244,0.020324768491336215,0.04960797284893585,0.023274540797177428,1.4762633178020339e-06,0.0932087584007673
163.0,0.08195338307471865,0.07633167960965524,-0.005895704939579055,0.017339459222120386,0.042729096860343825,0.022156626211443153,2.2022553269266308e-06,0.0822273845492343
163.5,0.07366221114026206,0.06804050767519865,-0.004272113160699781,0.014751640621691675,0.036466541055976645,0.02109119024794329,3.248910286812233e-06,0.07231262083589843
164.0,0.06666101792744711,0.0610393144623837,-0.0023992124727113123,0.012516006841092435,0.03084187367087873,0.02007590561280574,4.740810318113361e-06,0.06343852693509501
164.5,0.060768376637150366,0.055146673172086956,-0.00041429821617007534,0.010591008558176414,0.025854583294444147,0.01910853585904916,6.843676587312561e-06,0.05556097138825703
165.0,0.05588614201579131,0.0502644385507279,0.001642757683485506,0.008938811651011739,0.021486161137952663,0.018186932908761486,9.775169516510474e-06,0.048621680867242396
165.5,0.05175909387338228,0.04613739040831887,0.0035851119928880446,0.0075251922832742174,0.017704234019227272,0.017309034545194172,1.3817567735162375e-05,0.04255227841543083
166.0,0.04782962258987917,0.04220791912481576,0.0049298345820689565,0.00631938343292544,0.014466506872617284,0.016472861886586823,1.9332350617254364e-05,0.0372780845427468
166.5,0.04471081037538855,0.03908910691032514,0.006367589494265108,0.005293886087757362,0.011724337872714206,0.015676516852367543,2.6776603220915844e-05,0.03272151741606003
167.0,0.04219054049652284,0.03656883703145943,0.007763847909508476,0.004424256509312026,0.009425831953996816,0.014918179631283803,3.6721027358309624e-05,0.028804989121950956
167.5,0.04009802105179523,0.03447631758673182,0.009023068163036649,0.00368887919554926,0.007518394888453452,0.01419610616000199,4.986917969047231e-05,0.025453249423695173
168.0,0.03817311442208175,0.03255141095701834,0.009956237318949467,0.0030687335007994654,0.005950737146310933,0.01350862561977456,6.707737118391819e-05,0.022595173638068875
168.5,0.036481913809717534,0.030860210344654124,0.010695184508427255,0.002547160332418499,0.004674353086838758,0.012854137957898838,8.937445907076934e-05,0.02016502583622687
169.0,0.03536081103079975,0.02973910756573634,0.011635855128280727,0.0021096339578876426,0.0036445264867454004,0.012231111439886928,0.000117980552935642,0.018103252437455614
169.5,0.0342420513739018,0.02862034790883839,0.012263472621939567,0.0017435427340895245,0.002820928861153405,0.011638080237521744,0.00015432345413415134,0.016356875286898824
170.0,0.033376213164205144,0.027754509699141734,0.012874950719332841,0.001437981514011454,0.0021678839399879215,0.011073642057287683,0.0002000514685218343,0.014879558979808893
170.5,0.03285719649529117,0.027235493030227757,0.013604066712901366,0.0011835575906626137,0.0016543718192174016,0.010536455813038026,0.00025704109440835056,0.013631426317326391
171.0,0.03174190575421962,0.026120202289156208,0.013541512077233534,0.0009722112943678174,0.0012538415619038408,0.010025239346181821,0.0003273980094691938,0.012578690211922674
171.5,0.030625388181391006,0.025003684716327596,0.013310522879618205,0.0007970517555210901,0.0009438931049493728,0.00953876719614721,0.0004134497800917183,0.011693161836709392
172.0,0.02997383387294748,0.02435213040788407,0.01340044559014053,0.0006522078661539911,0.0007058797181388155,0.009075868423396529,0.0005177288100542047,0.01095168481774354
172.5,0.029329067862713522,0.023707364397650112,0.013371829415698729,0.0005326941052411047,0.0005244721455957635,0.00863542448683028,0.000642944244284235,0.010335534981951383
173.0,0.028125185904923865,0.022503482439860455,0.012673666984170518,0.0004342906193878956,0.0003872158054510531,0.008216367177020503,0.0007919418538304868,0.009829815455689938
173.5,0.027560407955753746,0.021938704490690335,0.012515836169064654,0.00035343675779258156,0.000284103608284104,0.007817676606353328,0.0009676513491956681,0.009422868321625682
174.0,0.0270124437805236,0.02139074031546019,0.012285023427221759,0.0002871371344362496,0.00020717940508672267,0.0074383792568367,0.00117302109187876,0.009105716888238432
174.5,0.026268822914500792,0.02064711944943738,0.011775572445085212,0.00023287921881666655,0.0001501809185427635,0.007077546086037023,0.001410940780955717,0.00887154700435217
175.0,0.02561792438295303,0.01999622091788962,0.011280989212459777,0.00018856142803047593,0.00010822622893294955,0.006734290691346225,0.001684153357120193,0.008715231705429843
