wavelength,absorbance,absorbance_bk,residual_3gauss
117.0,0.15310970686471106,0.15828137972950906,-0.006533044602799409
117.5,0.15430360379656824,0.15947527666136624,-0.0036673350773174795
118.0,0.1540865156833537,0.15925818854815166,-0.002018634684656073
118.5,0.15320521450292557,0.15837688736772354,-0.0008527558429292093
119.0,0.15121739450474675,0.15638906736954472,-0.0006248421905054591
119.5,0.15072687512539804,0.15589854799019603,0.0012558974573989024
120.0,0.14913590546237843,0.1543075783271764,0.0021785391437864343
120.5,0.14729422688216143,0.1524658997469594,0.0029795300902710764
121.0,0.14498185671456343,0.1501535295793614,0.0034254693480459952
121.5,0.1417964436363673,0.14696811650116526,0.0031004279776176424
122.0,0.13968434883667138,0.14485602170146938,0.003936957216896186
122.5,0.13680455043602624,0.1419762233008242,0.0040798766936509245
123.0,0.13236043825818933,0.1375321111229873,0.0027179052222481015
123.5,0.1284423928778324,0.1336140657426304,0.0019260252420452428
124.0,0.12429443062525412,0.1294661034900521,0.0009318624090349781
124.5,0.12107393521625116,0.12624560808104915,0.0008751046449668731
125.0,0.11713846207520268,0.12231013494000066,9.395526838663903e-05
125.5,0.1132421167203566,0.11841378958515458,-0.0006788639611608333
126.0,0.10947741751421394,0.11464909037901193,-0.0013746285206839848
126.5,0.10569449446489512,0.11086616732969311,-0.002169765946751903
127.0,0.10294414908795461,0.1081158219527526,-0.00204309047880738
127.5,0.1001123472961731,0.10528402016097109,-0.002141505980137501
128.0,0.09733695471061021,0.1025086275754082,-0.002363324908702877
128.5,0.09511551523476647,0.10028718809956445,-0.0022503592241386178
129.0,0.09416796643986904,0.09933963930466702,-0.0011248495052491592
129.5,0.09203702118877449,0.09720869405357248,-0.0014884697893831622
130.0,0.09123961364310956,0.09641128650790755,-0.0008699882404004239
130.5,0.09048840989322189,0.09566008275801988,-0.0006025769452538826
131.0,0.09013168075255373,0.09530335361735172,-0.00038248544648396277
131.5,0.09048710791530767,0.09565878078010566,6.646019342643195e-05
132.0,0.090811393078564,0.09598306594336199,-3.5652222131990485e-05
132.5,0.09245586427434717,0.09762753713914515,0.00063277776198295
133.0,0.09388968309487501,0.099061355959673,0.0005200809442541254
133.5,0.09633089161535731,0.1015025644801553,0.0008342873950705487
134.0,0.09880142962932288,0.10397310249412087,0.0005998636081900599
134.5,0.1017915791653174,0.10696325203011539,0.0003235613408077431
135.0,0.1055046848897116,0.11067635775450958,0.00024012124386345313
135.5,0.10939229371173674,0.11456396657653473,-0.00015211507741011432
136.0,0.11361175889052275,0.11878343175532073,-0.0006337060093570129
136.5,0.1188430625715951,0.12401473543639309,-0.0004480079819171451
137.0,0.1239263029468829,0.12909797581168087,-0.0006650298527587362
137.5,0.12976319704128694,0.13493486990608494,-0.00028186378435010595
138.0,0.1356796891959481,0.1408513620607461,0.00013745975566945012
138.5,0.1417731759720868,0.1469448488368848,0.0008062961269046931
139.0,0.14738923482167027,0.15256090768646824,0.0011888944158382486
139.5,0.15291004119376936,0.15808171405856736,0.0017854084471432274
140.0,0.15725903778600675,0.16243071065080472,0.0016331179028877818
140.5,0.1607559178436644,0.16592759070846236,0.0011580637528685878
141.0,0.1633191885580017,0.16849086142279968,0.00037449562323674246
141.5,0.16519700948541485,0.17036868235021285,-0.0003870622155855985
142.0,0.1662223959399618,0.17139406880475977,-0.0012269518564632098
142.5,0.16714070729412758,0.17231238015892558,-0.0013507575472144762
143.0,0.16752884846797003,0.17270052133276803,-0.0011514687902158538
143.5,0.16625796736048457,0.17142964022528256,-0.001747657725927998
144.0,0.16506798698451108,0.17023965984930906,-0.0014093606973988038
144.5,0.1631696244956977,0.1683412973604957,-0.0009560437329398652
145.0,0.16027784665353925,0.16544951951833725,-0.0007227180082020057
145.5,0.1568986207920075,0.16207029365680548,-0.0002723256405591512
146.0,0.15299416741647506,0.15816584028127306,0.0002708815061923109
146.5,0.14854638107439913,0.15371805393919713,0.0007867608767312406
147.0,0.14295318229228815,0.14812485515708612,0.0005584203590801584
147.5,0.13747945516413757,0.14265112802893554,0.000726897555455075
148.0,0.13137387796586011,0.1365455508306581,0.0004127897226475219
148.5,0.1254300305201511,0.13060170338494909,0.00028320034716122766
149.0,0.11990596010530004,0.12507763297009802,0.000477981981548109
149.5,0.11487898552079633,0.12005065838559431,0.0009716310993544558
150.0,0.10968159350691128,0.11485326637170927,0.0010160485360415361
150.5,0.10517848127894316,0.11035015414374115,0.0014234200160959942
151.0,0.09990581077051097,0.10507748363530896,0.0007094348586210164
151.5,0.09534531214487175,0.10051698500966974,0.00036873193381450897
152.0,0.09075662077652644,0.09592829364132442,-0.00029453639000580345
152.5,0.08656266316597144,0.09173433603076943,-0.0007863155616746054
153.0,0.08321878444759434,0.08839045731239233,-0.0005613965534309456
153.5,0.07952756072660652,0.08469923359140451,-0.0007185672597425918
154.0,0.07588155251971986,0.08105322538451784,-0.0007687766619888375
154.5,0.07207781923164609,0.07724949209644408,-0.0008311808925182268
155.0,0.06846687388695923,0.07363854675175721,-0.0004931120368347475
155.5,0.06416300438345647,0.06933467724825446,-0.0006059984377023292
156.0,0.059760508747434125,0.0649321816122321,-0.0005720390017098509
156.5,0.05538251879240668,0.060554191657204666,-0.0002947879296130232
157.0,0.05098172861122749,0.056153401476025475,0.00012535603144313984
157.5,0.0468285352047272,0.05200020806952518,0.0008855549817570196
158.0,0.042533856317288815,0.0477055291820868,0.001511132160630077
158.5,0.03788427633924336,0.04305594920404134,0.0016989645281157914
159.0,0.03296218133205908,0.03813385419685707,0.0014453484159190622
159.5,0.028151226104390487,0.03332289896918847,0.0010579021192514623
160.0,0.02374672504201471,0.028918397906812696,0.0007705965082394593
160.5,0.019289886508927663,0.02446155937372565,8.063300389218181e-05
161.0,0.015224829823155551,0.02039650268795354,-0.0005938197768009038
161.5,0.012376904678640749,0.017548577543438734,-0.00043622819520993533
162.0,0.009606183670236362,0.014777856535034347,-0.0005803510649514572
162.5,0.006424959606389625,0.01159663247118761,-0.0014956588123915503
163.0,0.004421522955919553,0.009593195820717538,-0.0015667972384575558
163.5,0.00247822015442044,0.007649893019218425,-0.0018787232051815043
164.0,0.0008057514894590878,0.005977424354257074,-0.0021852788221966794
164.5,-0.00017722401694170563,0.004994448847856279,-0.0020319663879622496
165.0,-0.0009454819450161412,0.004226190919781844,-0.001859154758744352
165.5,-0.0018521752756899769,0.0033194975891080083,-0.0019882710719448665
166.0,-0.0024522620617264622,0.002719410803071523,-0.001945970232776205
166.5,-0.0031374901819080448,0.0020341826828899406,-0.0020994429583023125
167.0,-0.003368984365594114,0.0018026884992038716,-0.0018890082607431668
167.5,-0.0035280046697976487,0.0016436681950003367,-0.0016786577128028485
168.0,-0.003846142339103924,0.0013255305256940613,-0.0016859035722946382
168.5,-0.004025529513474296,0.0011461433513236894,-0.0016015765203048053
169.0,-0.004377589936139068,0.0007940829286589178,-0.0017281513838652792
169.5,-0.004272636292316992,0.0008990365724809938,-0.0014289408889892417
170.0,-0.004059528245370997,0.0011121446194269887,-0.001047391798538068
170.5,-0.0040896355824009915,0.001082037282396994,-0.0009307372348397822
171.0,-0.004268718951150614,0.000902953913647371,-0.0009816193328802277
171.5,-0.0042010309943172645,0.0009706418704807209,-0.0008019817357099621
172.0,-0.0047464481173061105,0.0004252247474918749,-0.0012500361088537203
172.5,-0.00501176265580954,0.00015991020898844556,-0.001431425215930238
173.0,-0.005098352054145232,7.332081065275324e-05,-0.0014467918468278594
173.5,-0.005011564692789482,0.00016010817200850375,-0.0013010864647788846
174.0,-0.005171672864797985,0.0,-0.001414458176464438
174.5,-0.0046395543368895915,0.0005321185279083939,-0.0008478855595242226
175.0,-0.005008523086021822,0.0001631497787761638,-0.001194964020127537
175.5,-0.004773093839495569,0.000398579025302416,-0.0009506312950406084
176.0,-0.004415739387596926,0.0007559334772010593,-0.0005978878523381305
176.5,-0.00446316848158546,0.0007085043832125255,-0.0006640384785248691
177.0,-0.004288180367378712,0.0008834924974192738,-0.000522510167091554
177.5,-0.004469861844785153,0.0007018110200128326,-0.0007530117652932845
178.0,-0.0034839771609332542,0.0016876957038647312,0.00016811431880002677
178.5,-0.003961456642238831,0.0012102162225591543,-0.0003905579077964636
179.0,-0.0032411248213710868,0.0019305480434268986,0.00023177223091006027
179.5,-0.003642896762686312,0.0015287761021116732,-0.00028502697430187753
180.0,-0.003527193674795152,0.0016444791900028333,-0.0003014001222089598
180.5,-0.002940808193514969,0.0022308646712830165,0.0001360618027199333
181.0,-0.0032240860884986443,0.001947586776299341,-0.0003125330062044673
181.5,-0.002741691121197369,0.0024299817436006163,-1.1120445607993527e-05
182.0,-0.002848015697386451,0.0023236571674115345,-0.00031307630728666424
182.5,-0.002816017821185359,0.0023556550436126264,-0.0004900460270397446
183.0,-0.0027192339012169584,0.002452438963581027,-0.0006139586060150224
183.5,-0.0024024574310947855,0.0027692154337032,-0.0005277151371453851
184.0,-0.002240883160128853,0.0029307897046691326,-0.0006043516606384913
184.5,-0.002164815847670065,0.0030068570171279205,-0.0007717752278318425
185.0,-0.001760834727070202,0.0034108381377277834,-0.000613963759090199
185.5,-0.0019126530107272048,0.0032590198540707804,-0.0010118681729320064
186.0,-0.0015173802043888368,0.0036542926604091483,-0.000859723414174618
186.5,-0.00149794903354083,0.0036737238312571554,-0.0010775287995526657
187.0,-0.0012465129745476504,0.0039251598902503345,-0.0010545020991982032
187.5,-0.0010284357233400127,0.004143237141457973,-0.0010531269857331138
188.0,-0.0010133699583590788,0.004158302906438907,-0.0012402894487074413
188.5,-0.0005531333975084326,0.004618539467289553,-0.0009652094281181649
189.0,-0.0005141122258095998,0.0046575606389883855,-0.001091896079972018
189.5,-0.0003369653358409004,0.004834707528957085,-0.0010588985988308833
190.0,-0.0003773430285984235,0.004794329836199562,-0.0012200649306880673
190.5,-0.0005307545104342052,0.0046409183543637805,-0.0014694416461165849
191.0,-3.157199967382532e-05,0.00514010086512416,-0.0010403020035468198
191.5,-0.00010455339445709631,0.005067119470340889,-0.0011566836724427884
192.0,0.0002331273597185396,0.005404800224516525,-0.0008354250813620463
192.5,-0.00012250464788862402,0.005049168216909362,-0.0011805473693776124
193.0,0.0004475749456904764,0.005619247810488462,-0.0005734426437265568
193.5,0.00013898806682101497,0.005310660931619001,-0.0008192563123994951
194.0,0.0007273139145553397,0.005898986779353325,-0.00014350099980278783
194.5,0.0011105074248406756,0.006282180289638661,0.00035039424272668117
195.0,0.001339211788361683,0.0065108846531596685,0.0007114335611516165
195.5,0.0009546602906612882,0.006126333155459273,0.0004789967845702922
196.0,0.001022435351766206,0.006194108216564191,0.0007166413838511285
196.5,0.001046359292853477,0.006218032157651462,0.0009260371857510311
197.0,0.0011600581258540106,0.006331730990651996,0.0012385739555158138
197.5,0.0011261727496760495,0.006297845614474035,0.0014146151455067977
198.0,0.0010632834406171716,0.0062349563054151565,0.0015704627359920485
198.5,0.0006947771748755523,0.0058664500396735375,0.0014272618899055017
199.0,0.00020295127810404187,0.005374624142902028,0.0011651382589173915
199.5,-0.0003343042319917121,0.004837368632806273,0.0008599098137363525
200.0,-0.0007518102165036229,0.004419862648294363,0.0006748082629737043
200.5,-0.0005709801917863558,0.00460069267301163,0.0010866175966663533
201.0,-0.001064816058059039,0.004106856806738946,0.0008206939822697711
201.5,-0.0012006469393277567,0.003971025925470229,0.0009082379590972496
202.0,-0.0011485465005052035,0.004023126364292782,0.0011778837832813567
202.5,-0.0012618011994472063,0.003909871665350779,0.001275233776498897
203.0,-0.0011704587754884485,0.004001214089309537,0.0015693087603089089
203.5,-0.0016183243591716414,0.003553348505626344,0.0013155476268972063
204.0,-0.0018204326418334443,0.003351240222964541,0.001298328075574901
204.5,-0.0016692537911449671,0.0035024190736530183,0.0016247513114260568
205.0,-0.0018658569227270672,0.003305815942070918,0.001593467376870158
205.5,-0.00281660265437442,0.002355070210423565,0.0007979700550653753
206.0,-0.003035792524408913,0.0021358803403890726,0.0007239340022873627
206.5,-0.0029149334672396005,0.002256739397558385,0.0009799363191731615
207.0,-0.002367101712676568,0.0028045711521214175,0.0016530785551165917
207.5,-0.0028475888268559746,0.0023240840379420108,0.0012883267425059612
208.0,-0.0018694817795527228,0.0033021910852452626,0.002372917842227074
208.5,-0.0018605585157506527,0.0033111143490473327,0.0024794513401751837
209.0,-0.0018529238251372925,0.003318749039660693,0.0025762413714477237
209.5,-0.0017611441876627335,0.003410528677135252,0.0027491708197019435
210.0,-0.0019401215628978604,0.0032315513019001247,0.0026438075083681837
210.5,-0.0017251039884755759,0.0034465688763224093,0.002925384665860594
211.0,-0.001772872427770099,0.0033988004370278865,0.002937606239675315
211.5,-0.0021471067964728215,0.003024566068325164,0.002617274117201749
212.0,-0.001737329251842201,0.0034343436129557845,0.003075339134215674
212.5,-0.0017594366681269792,0.0034122361966710062,0.003096363894233622
213.0,-0.001959753543031316,0.0032119193217666694,0.0029344660868625807
213.5,-0.0017134536112453002,0.003458219253552685,0.0032148939524706266
214.0,-0.001725173962089443,0.0034464989027085426,0.0032334100134158395
214.5,-0.0016944223330175444,0.003477250531780441,0.003290882314436763
215.0,-0.0017459455853602631,0.003425727279437722,0.0032629150798772857
215.5,-0.0012365292706904448,0.00393514359410754,0.0037930487953018845
216.0,-0.0013374972940623652,0.0038341755707356202,0.0037102606267916142
216.5,-0.0015583528915280405,0.003613319973269945,0.0035053238849716917
217.0,-0.0012768139825256176,0.0038948588822723678,0.0038007734034693776
217.5,-0.0010572187167837803,0.004114454148014205,0.004032500948887328
218.0,-0.0009543245157882492,0.004217348349009736,0.004145957305720357
218.5,-0.0007318220968963437,0.004439850767901642,0.004377639498419624
219.0,-0.0008353601856540146,0.00433631267914397,0.004282067402032722
219.5,-0.0004390577556032735,0.004732615109194712,0.004685272865533172
220.0,-0.000707810584402064,0.004463862280395922,0.004422494528449806
