wavelength,absorbance,absorbance_bk,residual_3gauss,Gauss_1,Gauss_2,Gauss_3,Gauss_4,Gauss_fit
117.0,0.4794963411580502,0.4812573707441895,-0.007677818705694728,4.5883358459908615e-07,1.350105629950548e-34,0.4889347306162996,1.2423886241561809e-59,0.48893518944988423
117.5,0.47717874994930143,0.47893977953544076,-0.006538905527311956,8.484214455248615e-07,1.7588286743609193e-33,0.48547783664130717,2.266021288760025e-58,0.4854786850627527
118.0,0.47236988208375513,0.47413091166989446,-0.007305703569005673,1.5390789329302322e-06,2.1460560767578045e-32,0.4814350761599672,3.905112290738614e-57,0.48143661523890013
118.5,0.47170472141076136,0.4734657509969007,-0.0033741338709677993,2.7402129530731285e-06,2.4559509095605764e-31,0.4768371446549154,6.365811762150251e-56,0.4768398848678685
119.0,0.4692009317970747,0.47096196138321406,-0.0007585236493359293,4.790258244241913e-06,2.639639709643845e-30,0.47171569477430575,9.826556316376329e-55,0.47172048503255
119.5,0.4649427891513752,0.46670381873751454,0.0005924962514998744,8.225409889418878e-06,2.6680105791895376e-29,0.46610309707612524,1.43794379365423e-53,0.46611132248601467
120.0,0.4635899551842041,0.4653509847703434,0.005304893838919356,1.387870380904103e-05,2.539256641008254e-28,0.46003221222761503,1.9967819447997173e-52,0.46004609093142407
120.5,0.45831258126228414,0.46007361084842346,0.0065144154666201826,2.3019598588307703e-05,2.2784896240005443e-27,0.453536175783215,2.633979646743504e-51,0.4535591953818033
121.0,0.45312241412752274,0.4548834437136621,0.008197701180215233,3.754610870277353e-05,1.9299299259494e-26,0.44664819642474407,3.3038634815168547e-50,0.44668574253344684
121.5,0.4455811606655492,0.44734219025168853,0.007880578794939641,6.0243134911586716e-05,1.5449355636948967e-25,0.4394013683218373,3.944434835584573e-49,0.4394616114567489
122.0,0.438689720438674,0.4404507500248133,0.008527130383335857,9.512158093813253e-05,1.1702048316300505e-24,0.43182849806053936,4.486587046348308e-48,0.43192361964147746
122.5,0.4313916598454847,0.43315268943162405,0.009042890333677778,0.00014785270332512985,8.396393216108016e-24,0.42396194639462115,4.866563366888206e-47,0.42410979909794627
123.0,0.421211020374915,0.4229720499610543,0.006912254638112514,0.00022631042466004028,5.713317241044679e-23,0.41583348489828176,5.038496641985315e-46,0.4160597953229418
123.5,0.411068090626508,0.41282912021264734,0.0050137222209782895,0.00034123055078205954,3.69081995837801e-22,0.407474167440887,4.983568343991545e-45,0.40781539799166905
124.0,0.40101071161709045,0.4027717412032298,0.003350535410779898,0.0005069895281700819,2.265999552657865e-21,0.3989142162642798,4.713252469870511e-44,0.3994212057924499
124.5,0.39129937646547946,0.3930604060516188,0.002134987475259753,0.000742496255662824,1.3235861417097355e-20,0.39018292232069623,4.265927509303133e-43,0.39092541857635904
125.0,0.38056300271076954,0.38232403229690887,-5.6705580178451065e-05,0.0010721784529866244,7.362796625483412e-20,0.3813085594241007,3.698130479928919e-42,0.3823807378770873
125.5,0.37021557457424253,0.37197660416038186,-0.001868737953970745,0.001527030435375678,3.904490835152814e-19,0.37231831167897694,3.073141537314581e-41,0.3738453421143526
126.0,0.3597070021912112,0.36146803177735054,-0.003915854289551712,0.0021456724893152705,1.9757869960394126e-18,0.36323821357758695,2.4499787818005094e-40,0.36538388606690225
126.5,0.350757143899148,0.35251817348528736,-0.00455028307424038,0.002975354461091261,9.549565079192161e-18,0.3540931020984365,1.8752614760141276e-39,0.35706845655952774
127.0,0.3412934962737232,0.3430545258598625,-0.005924873386214002,0.004072819151967915,4.41264757370554e-17,0.3449065800941086,1.3791581285608836e-38,0.3489793992460765
127.5,0.3333111818049563,0.3350722113910956,-0.006133705344055829,0.005504926510441962,1.951113409592677e-16,0.3357009902247093,9.753148332889988e-38,0.34120591673515144
128.0,0.32575905857408904,0.3275200881602284,-0.006326240007017092,0.007348929494546604,8.262663913825176e-16,0.32649739867269806,6.6370173929726854e-37,0.33384632816724547
128.5,0.3196114549630608,0.32137248454920014,-0.005635392263332262,0.009692288947718319,3.3542089334563155e-15,0.31731558786481073,4.3492107838009216e-36,0.3270078768125324
129.0,0.31381689301223065,0.31557792259837,-0.005228054613348798,0.01263191978585433,1.3063585906611508e-14,0.30817405742585136,2.7463930988201895e-35,0.3208059772117188
129.5,0.3091211882306909,0.31088221781683023,-0.004480590439929821,0.016272775660331817,4.885383684890732e-14,0.2990900325963794,1.672355377896433e-34,0.31536280825676005
130.0,0.3055695309428956,0.3073305605290349,-0.0034746235861380925,0.020725704754468506,1.755709752173026e-13,0.2900794793605289,9.82654020195759e-34,0.310805184115173
130.5,0.30299701557955105,0.3047580451656904,-0.0025036256622615327,0.02610454527691603,6.068349892953601e-13,0.28115712555042904,5.575262053464353e-33,0.3072616708279519
131.0,0.3014171868703052,0.30317821645644455,-0.0016807450311308036,0.03252247426659063,2.018788887269759e-12,0.2723364872189659,3.0563486561925446e-32,0.30485896148757535
131.5,0.3008660899499726,0.30262711953611193,-0.0010904552411082347,0.04008767516877017,6.469114044425423e-12,0.2636298996019809,1.6198991051097856e-31,0.30371757477722017
132.0,0.30202733674378407,0.3037883663299234,-0.0001586306541063176,0.04889844494036109,1.9982801318594128e-11,0.2550485520236858,8.305949065847071e-31,0.3039469969840297
132.5,0.30407876632535374,0.3058397959114931,0.00019935363653483806,0.05903791608119347,5.954463815214636e-11,0.2466025261342201,4.1225882655312755e-30,0.30564044227495824
133.0,0.3075575632080004,0.3093185927941397,0.0004491373088465478,0.07056861840874362,1.712828693070785e-10,0.23830083690526668,1.9819275539753095e-29,0.30886945548529315
133.5,0.3129927883687956,0.31475381795493496,0.001075196632438713,0.0835271449987225,4.759636447121575e-10,0.23015147584781007,9.234110857926678e-29,0.31367862132249624
134.0,0.3190272082559516,0.32078823784209093,0.0007075682937500161,0.09791921231489083,1.2785547577802544e-09,0.2221614559548953,4.171949731498166e-28,0.3200806695483409
134.5,0.32689704947459,0.3286580790607293,0.0006058050213331168,0.11371541280589537,3.3223193015263835e-09,0.2143368579111815,1.8287815108854293e-27,0.3280522740393962
135.0,0.33600219436236844,0.3377632239485078,0.00023239140499059507,0.13084794703733182,8.356501582517157e-09,0.20668287714968378,7.78216596272319e-27,0.3375308325435172
135.5,0.34635499635713224,0.34811602594327157,-0.0002964569236618697,0.1492085911342812,2.035857156288116e-08,0.1992038713740807,3.216528171539901e-26,0.34841248286693344
136.0,0.358033482461031,0.35979451204717033,-0.0007570491731764828,0.16864810494748989,4.807092427957732e-08,0.1919034082019327,1.291962774096654e-25,0.3605515612203468
136.5,0.3711999800439008,0.37296100963004014,-0.000800632616873409,0.18897721954990557,1.100770944790457e-07,0.1847843126199135,5.045583017948239e-25,0.37376164224691355
137.0,0.3850668188391816,0.3868278484253209,-0.000990373622874463,0.20996926347416925,2.445975480989911e-07,0.17784871397647803,1.916857644063875e-24,0.3878182220481954
137.5,0.4005571897276148,0.4023182193137541,-0.00014480135525629656,0.23136440067866074,5.277202543119074e-07,0.17109809227009534,7.087605585039968e-24,0.4024630206690104
138.0,0.41658192508896946,0.4183429546751088,0.0009331596118258845,0.2528753654205482,1.1061205710426842e-06,0.16453332352216368,2.5518204897837085e-23,0.4174097950632829
138.5,0.4329367471607148,0.4346977767468541,0.0023463029628057464,0.27419449604458057,2.253686576443962e-06,0.15815472405289133,8.950496220766218e-23,0.43235147378404837
139.0,0.4486778029064191,0.45043883249255845,0.0034704761336149526,0.29500179686973355,4.46598348166911e-06,0.15196209350572823,3.0597921737065162e-22,0.4469683563589435
139.5,0.46360557759767296,0.4653666071838123,0.004429538818933931,0.3149736997851625,8.612088377179508e-06,0.14595475649133868,1.0199572317695984e-21,0.46093706836487836
140.0,0.476397931894619,0.4781589614807583,0.0042190305963688,0.33379215858714717,1.616955165200761e-05,0.14013160274559033,3.3167342885717304e-21,0.4739399308843895
140.5,0.48700124021093255,0.4887622697970719,0.003087878214791784,0.351153691785669,2.9574078938778198e-05,0.1344911257176723,1.0526105625988817e-20,0.4856743915822801
141.0,0.4950422403639328,0.4968032699500721,0.0009410968924135066,0.3667779942858092,5.271924765042258e-05,0.12903145952419898,3.2616622104352396e-20,0.4958621730576586
141.5,0.501200157435429,0.5029611870215683,-0.001296632023848665,0.380415764131984,9.164069029581092e-05,0.12375041422313716,9.872034956603855e-20,0.504257819045417
142.0,0.5054405834774608,0.5072016130636001,-0.0034547420170821797,0.3918554350838518,0.00015541061920253625,0.11864550937762794,2.919775646260554e-19,0.5106563550806823
142.5,0.508551127310683,0.5103121568968223,-0.004587663807029241,0.4009285656795839,0.0002572491299490215,0.1137140058943186,8.44194514145571e-19,0.5148998207038515
143.0,0.5105589584896252,0.5123199880757645,-0.004562480207148445,0.40751370629180395,0.0004158258572720464,0.10895293613383697,2.387028189133899e-18,0.516882468282913
143.5,0.5112231967129696,0.5129842262991089,-0.003570227125067049,0.4115386426773509,0.0006566784443492443,0.10435913230247583,6.603329006857129e-18,0.5165544534241759
144.0,0.5093629766177715,0.5111240062039109,-0.0027998546923261314,0.4129809927587957,0.0010136149931809764,0.09992925314426036,1.7878200775127405e-17,0.513923860896237
144.5,0.5052039045785433,0.5069649341646826,-0.002091985141117636,0.4118672082203818,0.0015299021241356346,0.09565980896128282,4.739167863274807e-17,0.5090569193058002
145.0,0.4993950933075407,0.5011561228936801,-0.0009201406812319179,0.4082700998980913,0.0022589786791006685,0.09154718499771981,1.2304290553049436e-16,0.502076263574912
145.5,0.4920771269178355,0.49383815650397483,0.0006810392807752308,0.4023050626475393,0.0032643913463512348,0.08758766322930871,3.1299904207828643e-16,0.4931571172231996
146.0,0.4833994008881902,0.48516043047432955,0.0026391303720106896,0.39412521909590637,0.004618638401031988,0.08377744260537975,7.803943804475519e-16,0.48252130010231886
146.5,0.4722212873679864,0.47398231695412574,0.0035532818122124277,0.3839157311535269,0.006400646193481426,0.08011265779490312,1.907742607648053e-15,0.4704290351419133
147.0,0.458557034137908,0.4603180637240473,0.0031494240151896946,0.37188754309985617,0.008691700117519276,0.07658939649147761,4.574113245269381e-15,0.4571686397088576
147.5,0.4432386354702393,0.4449996650563786,0.0019553194494667525,0.3582708210925907,0.011569809179428894,0.07320371533488149,1.0760184097143713e-14,0.44304434560691186
148.0,0.4267371942355877,0.42849822382172703,0.00013553568137075755,0.3433083424592924,0.015102691172273123,0.06995165450876585,2.4842744838271034e-14,0.4283626881403563
148.5,0.41047398753362285,0.4122350171197622,-0.0011831016232020097,0.3272490660749115,0.019339801592609247,0.06682925107538717,5.6309970218289015e-14,0.4134181187429642
149.0,0.3968600283982832,0.39862105798442254,0.00014236135025896823,0.3103420848408866,0.024304060684116092,0.06383255110903552,1.253467255019539e-13,0.3984786966341636
149.5,0.38322369984574545,0.3849847294318848,0.0012118637647523522,0.2928311252774147,0.02998411969940221,0.060957620690041354,2.741045448216431e-13,0.3837728656671324
150.0,0.3693409805988228,0.37110201018496214,0.001623624193347717,0.27494972003530854,0.036328110134661785,0.05820055582105503,5.890146418152064e-13,0.3694783859916144
150.5,0.35514415599162613,0.35690518557776546,0.0011907483740323799,0.2569171390867708,0.043239806789032185,0.05555749132668595,1.2441454748434701e-12,0.3557144372037331
151.0,0.34080325760735347,0.3425642871934928,2.656100638676051e-05,0.23893512654818327,0.05057799083966612,0.05302460879667272,2.58391167204851e-12,0.34253772618710604
151.5,0.32665873251404753,0.32841976210018686,-0.0015233627740303124,0.2211854542434297,0.05815952699397134,0.05059814363153812,5.278000711149672e-12,0.3299431248742172
152.0,0.31315236710773214,0.3149133966938715,-0.002955561617781599,0.20382827154540348,0.06576629550741742,0.048274391248225725,1.0606401439402611e-11,0.31786895831165307
152.5,0.30156400372302566,0.303325033309165,-0.0028815749234893384,0.1870012046257672,0.0731556910843416,0.04604971250157099,2.097455783785191e-11,0.30620660823265433
153.0,0.2912072549568596,0.29296828454299895,-0.0018453660067194178,0.1708191374810176,0.08007397465224028,0.043920538375632256,4.082825348599801e-11,0.29481365054971836
153.5,0.2812192196446521,0.2829802492307914,-0.000549118954561667,0.15537459210105845,0.08627140200907578,0.04188337399696842,7.825047161090162e-11,0.28352936818535307
154.0,0.2708286581897128,0.27258968777585213,0.000398460678622814,0.14073861570539797,0.09151780922422399,0.039934802019906124,1.4770123385740706e-10,0.2721912270972293
154.5,0.259253664629156,0.26101469421529533,0.0003638844154941756,0.12696207864369213,0.09561724544975193,0.03807148543171758,2.746395239587536e-10,0.26065080979980115
155.0,0.24776415306702596,0.24952518265316528,0.0007374022707004602,0.11407728671261297,0.09842032334318927,0.036290169823472065,5.031905045491499e-10,0.24878778038246482
155.5,0.23563180220551896,0.2373928317916583,0.000872135943454283,0.10209981553618386,0.09983319423323539,0.03458768517012966,9.08655100293684e-10,0.236520695848204
156.0,0.2224398705909179,0.22420090017705724,0.0003870546474606662,0.09103048149458563,0.09982241525617468,0.032960947161248914,1.6175873286078719e-09,0.22381384552959657
156.5,0.20933044260536368,0.211091472191503,0.0004117303631873126,0.08085737266851334,0.09841540819881746,0.031406958121488394,2.839496525861071e-09,0.2106797418283157
157.0,0.19637975034370417,0.1981407799298435,0.0009634376076440854,0.07155787363534113,0.09569665621284035,0.029922807557915487,4.916102435210259e-09,0.1971773423221994
157.5,0.1834254678905325,0.18518649747667182,0.001779999486356043,0.06310062902555388,0.09180018819911893,0.02850567236899983,8.39664313427079e-09,0.18340649799031578
158.0,0.16987879938881767,0.171639828974957,0.0021403811343734536,0.05544740193355421,0.08689921500775544,0.027152816748079917,1.4151193978611372e-08,0.16949944784058354
158.5,0.1559103459575684,0.15767137554370772,0.0020609897132627952,0.04855479409262563,0.08119397638726336,0.025861591812056987,2.3538498950743938e-08,0.15561038583044493
159.0,0.14188626181055575,0.14364729139669508,0.0017430914206241765,0.042375804795653504,0.07489892154568907,0.024629434984087706,3.865064063539407e-08,0.1419041999760709
159.5,0.12754770505291677,0.1293087346390561,0.0007633018498267863,0.03686121460384388,0.06823028636409183,0.023453869157142475,6.266415112908335e-08,0.1285454327892293
160.0,0.11354567876583493,0.11530670835197425,-0.00038165029653337845,0.031960787765513546,0.06139496888354264,0.022332501663449782,1.003360016630149e-07,0.11568835864850763
160.5,0.09989169192263885,0.10165272150877816,-0.0018161278245879126,0.027624293882766292,0.054581373684215444,0.021263023073078764,1.5869330556104744e-07,0.10346884933336607
161.0,0.08711945199435485,0.08888048158049416,-0.003117958117567529,0.02380235470433444,0.047952631173134266,0.02024320584322339,2.47977369595186e-07,0.0919984396980617
161.5,0.07580647370096294,0.07756750328710225,-0.0037932425292802746,0.020447126034341574,0.04164233402835795,0.01927090283812742,3.829155555847098e-07,0.08136074581638253
162.0,0.06613706536180713,0.06789809494794645,-0.003712061569646652,0.017512827718765153,0.03575269865315863,0.018344045738059575,5.844076097287701e-07,0.0716101565175931
162.5,0.05758362974468886,0.05934465933082818,-0.003427876797643503,0.014956136622822342,0.030354874425680002,0.01746064335427973,8.817256896083757e-07,0.06277253612847168
163.0,0.05028666794907265,0.05204769753521196,-0.0027998544403147058,0.012736458580104118,0.02549099819196164,0.016618779865557834,1.3153379030775961e-06,0.05484755197552667
163.5,0.04424864519646237,0.046009674782601685,-0.0018025015735508298,0.010816095622069737,0.02117752727156353,0.015816612990498732,1.940472020520264e-06,0.047812176356152515
164.0,0.03894230033394826,0.04070332992008757,-0.0009215736221770063,0.009160324527855633,0.01740937536869041,0.0150523721086908,2.8315370277333913e-06,0.04162490354226458
164.5,0.03468110371361351,0.03644213329975283,0.00021187606236469647,0.00773740200559758,0.014164411376279358,0.014324356342541358,4.087512969833239e-06,0.03623025723738813
165.0,0.031153667293520527,0.032914696879659845,0.0013514673449402936,0.006518510752381938,0.01140794777019128,0.013630932610569154,5.8384015771770155e-06,0.03156322953471955
165.5,0.028135803132058487,0.029896832718197805,0.0023434574655344827,0.005477659351007768,0.009096929440742653,0.012970533661908088,8.252799004811592e-06,0.027553375252663322
166.0,0.0256926743252552,0.02745370391139452,0.0033253305496732805,0.004591547542460363,0.007183623112915811,0.012341656100821375,1.1546605523687033e-05,0.024128373361721238
166.5,0.023374574112140774,0.025135603698280093,0.003918653358885343,0.0038394069416365015,0.00561869216494473,0.01174285840913794,1.599282367557812e-05,0.02121695033939475
167.0,0.02126128063500115,0.023022310221140468,0.004271178277477292,0.003202825802836572,0.004353614851411378,0.011172758973696077,2.1932315719149662e-05,0.018751131943663176
167.5,0.019478462180680268,0.021239491766819586,0.0045716454796547595,0.0026655650385327204,0.0033424618295839585,0.01063003412510868,2.9785293939466548e-05,0.016667846287164827
168.0,0.018232973856446087,0.019994003442585406,0.005084062424274121,0.0022133713843900966,0.00254309023449806,0.010113416193455026,4.0063205968102504e-05,0.014909941018311284
168.5,0.01732876645256251,0.01908979603870183,0.005663094367491838,0.00183379240839278,0.0019178371210762687,0.009621691585841958,5.338055589898304e-05,0.013426701671209991
169.0,0.016224086784834692,0.01798511637097401,0.005811147391865662,0.001515996995486599,0.0014338070166045758,0.009153698890170913,7.04660768462624e-05,0.012173968979108349
169.5,0.01549018752349926,0.01725121710963858,0.006137264085782752,0.001250604006789401,0.0010628494584882207,0.0087083270088858,9.217254969240397e-05,0.011113953023855826
170.0,0.014901443699467198,0.016662473285606515,0.0064476387006549216,0.0010295210133684828,0.000781315789894462,0.00828451332596011,0.00011948445572853858,0.010214834584951593
170.5,0.01412175056221554,0.01588278014835486,0.0064325483084214825,0.0008457943334555782,0.0005696730281390069,0.007881241909910868,0.00015352256842792236,0.009450231839933376
171.0,0.01377734968637326,0.015538379272512576,0.006739783163904313,0.0006934710500968406,0.0004120387604223049,0.00749754175519183,0.00019554454289728924,0.008798596108608264
171.5,0.012966985937893407,0.014728015524032724,0.006485429988161822,0.0005674732428471114,0.0002956866677006227,0.007132485063924833,0.00024694056139833414,0.008242585535870902
172.0,0.012327866817094378,0.014088896403233696,0.006320444588669292,0.00046348432026333073,0.00021055877560465175,0.006785185569566883,0.0003092231491295397,0.007768451814564405
172.5,0.011799453008474887,0.013560482594614204,0.006195019507756971,0.0003778470772688437,0.00014880871258041482,0.006454796903784023,0.00038401039322395064,0.007365463086857232
173.0,0.01120121866263638,0.012962248248775697,0.005936871822038054,0.0003074729107412769,0.00010439052518637179,0.006140511007506594,0.00047300198330340123,0.007025376426737643
173.5,0.010849545482599875,0.012610575068739194,0.005868609199799769,0.00024976149629355756,7.270004238595784e-05,0.005841556586872005,0.000577947743387904,0.006741965868939425
174.0,0.010343613875582946,0.012104643461722263,0.005594036802741593,0.0002025301484077406,5.027025890058167e-05,0.0055571976145208915,0.0007006086371514558,0.00651060665898067
174.5,0.009929667074171939,0.011690696660311257,0.005362783691327824,0.0001639520451213456,3.451845632077123e-05,0.005286731876495128,0.0008427105910461889,0.006327912968983433
