wavelength,absorbance,absorbance_bk,residual_3gauss
117.0,0.15310970686471106,0.15828137972950906,-0.006533044601803734
117.5,0.15430360379656824,0.15947527666136624,-0.00366733507633224
118.0,0.1540865156833537,0.15925818854815166,-0.002018634683682602
118.5,0.15320521450292557,0.15837688736772354,-0.0008527558419690329
119.0,0.15121739450474675,0.15638906736954472,-0.0006248421895601597
119.5,0.15072687512539804,0.15589854799019603,0.0012558974583275762
120.0,0.14913590546237843,0.1543075783271764,0.0021785391446963454
120.5,0.14729422688216143,0.1524658997469594,0.00297953009115956
121.0,0.14498185671456343,0.1501535295793614,0.0034254693489096377
121.5,0.1417964436363673,0.14696811650116526,0.003100427978452086
122.0,0.13968434883667138,0.14485602170146938,0.003936957217695686
122.5,0.13680455043602624,0.1419762233008242,0.004079876694407958
123.0,0.13236043825818933,0.1375321111229873,0.002717905222953121
123.5,0.1284423928778324,0.1336140657426304,0.001926025242685897
124.0,0.12429443062525412,0.1294661034900521,0.000931862409595946
124.5,0.12107393521625116,0.12624560808104915,0.0008751046454293365
125.0,0.11713846207520268,0.12231013494000066,9.395526872800486e-05
125.5,0.1132421167203566,0.11841378958515458,-0.0006788639609671548
126.0,0.10947741751421394,0.11464909037901193,-0.0013746285206684
126.5,0.10569449446489512,0.11086616732969311,-0.0021697659469482877
127.0,0.10294414908795461,0.1081158219527526,-0.0020430904792523435
127.5,0.1001123472961731,0.10528402016097109,-0.002141505980869138
128.0,0.09733695471061021,0.1025086275754082,-0.0023633249097591846
128.5,0.09511551523476647,0.10028718809956445,-0.0022503592255554705
129.0,0.09416796643986904,0.09933963930466702,-0.0011248495070578513
129.5,0.09203702118877449,0.09720869405357248,-0.0014884697916076606
130.0,0.09123961364310956,0.09641128650790755,-0.000869988243054412
130.5,0.09048840989322189,0.09566008275801988,-0.0006025769483379712
131.0,0.09013168075255373,0.09530335361735172,-0.00038248544998299716
131.5,0.09048710791530767,0.09565878078010566,6.646018954550859e-05
132.0,0.090811393078564,0.09598306594336199,-3.5652226342275384e-05
132.5,0.09245586427434717,0.09762753713914515,0.0006327777575156346
133.0,0.09388968309487501,0.099061355959673,0.0005200809396215256
133.5,0.09633089161535731,0.1015025644801553,0.0008342873903819381
134.0,0.09880142962932288,0.10397310249412087,0.0005998636035691729
134.5,0.1017915791653174,0.10696325203011539,0.00032356133638838935
135.0,0.1055046848897116,0.11067635775450958,0.0002401212397841329
135.5,0.10939229371173674,0.11456396657653473,-0.00015211508101252436
136.0,0.11361175889052275,0.11878343175532073,-0.00063370601235406
136.5,0.1188430625715951,0.12401473543639309,-0.000448007984195975
137.0,0.1239263029468829,0.12909797581168087,-0.0006650298542288102
137.5,0.12976319704128694,0.13493486990608494,-0.00028186378494951536
138.0,0.1356796891959481,0.1408513620607461,0.00013745975596896054
138.5,0.1417731759720868,0.1469448488368848,0.0008062961280937975
139.0,0.14738923482167027,0.15256090768646824,0.0011888944178680971
139.5,0.15291004119376936,0.15808171405856736,0.0017854084499253076
140.0,0.15725903778600675,0.16243071065080472,0.0016331179062955004
140.5,0.1607559178436644,0.16592759070846236,0.0011580637567413232
141.0,0.1633191885580017,0.16849086142279968,0.0003744956273855349
141.5,0.16519700948541485,0.17036868235021285,-0.00038706221137041474
142.0,0.1662223959399618,0.17139406880475977,-0.001226951852402569
142.5,0.16714070729412758,0.17231238015892558,-0.0013507575435299235
143.0,0.16752884846797003,0.17270052133276803,-0.0011514687871171936
143.5,0.16625796736048457,0.17142964022528256,-0.0017476577236004986
144.0,0.16506798698451108,0.17023965984930906,-0.0014093606959898475
144.5,0.1631696244956977,0.1683412973604957,-0.0009560437325459303
145.0,0.16027784665353925,0.16544951951833725,-0.0007227180088570095
145.5,0.1568986207920075,0.16207029365680548,-0.0002723256422258735
146.0,0.15299416741647506,0.15816584028127306,0.00027088150362686303
146.5,0.14854638107439913,0.15371805393919713,0.0007867608734540565
147.0,0.14295318229228815,0.14812485515708612,0.0005584203553430922
147.5,0.13747945516413757,0.14265112802893554,0.0007268975515577203
148.0,0.13137387796586011,0.1365455508306581,0.00041278971891248184
148.5,0.1254300305201511,0.13060170338494909,0.00028320034390325044
149.0,0.11990596010530004,0.12507763297009802,0.0004779819790406842
149.5,0.11487898552079633,0.12005065838559431,0.0009716310977978676
150.0,0.10968159350691128,0.11485326637170927,0.0010160485355373977
150.5,0.10517848127894316,0.11035015414374115,0.001423420016632787
151.0,0.09990581077051097,0.10507748363530896,0.0007094348600735767
151.5,0.09534531214487175,0.10051698500966974,0.00036873193595859943
152.0,0.09075662077652644,0.09592829364132442,-0.00029453638746486377
152.5,0.08656266316597144,0.09173433603076943,-0.0007863155590638743
153.0,0.08321878444759434,0.08839045731239233,-0.0005613965510674335
153.5,0.07952756072660652,0.08469923359140451,-0.0007185672578933072
154.0,0.07588155251971986,0.08105322538451784,-0.0007687766608395208
154.5,0.07207781923164609,0.07724949209644408,-0.0008311808921549063
155.0,0.06846687388695923,0.07363854675175721,-0.0004931120372405756
155.5,0.06416300438345647,0.06933467724825446,-0.0006059984387690454
156.0,0.059760508747434125,0.0649321816122321,-0.000572039003260888
156.5,0.05538251879240668,0.060554191657204666,-0.0002947879314336502
157.0,0.05098172861122749,0.056153401476025475,0.0001253560295738504
157.5,0.0468285352047272,0.05200020806952518,0.000885554980037534
158.0,0.042533856317288815,0.0477055291820868,0.001511132159214612
158.5,0.03788427633924336,0.04305594920404134,0.0016989645271018178
159.0,0.03296218133205908,0.03813385419685707,0.001445348415344265
159.5,0.028151226104390487,0.03332289896918847,0.0010579021190989801
160.0,0.02374672504201471,0.028918397906812696,0.0007705965084492776
160.5,0.019289886508927663,0.02446155937372565,8.063300437581578e-05
161.0,0.015224829823155551,0.02039650268795354,-0.0005938197761449944
161.5,0.012376904678640749,0.017548577543438734,-0.000436228194482538
162.0,0.009606183670236362,0.014777856535034347,-0.0005803510642417922
162.5,0.006424959606389625,0.01159663247118761,-0.0014956588117702174
163.0,0.004421522955919553,0.009593195820717538,-0.0015667972379732192
163.5,0.00247822015442044,0.007649893019218425,-0.0018787232048608563
164.0,0.0008057514894590878,0.005977424354257074,-0.002185278822046827
164.5,-0.00017722401694170563,0.004994448847856279,-0.002031966387974601
165.0,-0.0009454819450161412,0.004226190919781844,-0.0018591547588991501
165.5,-0.0018521752756899769,0.0033194975891080083,-0.0019882710722156837
166.0,-0.0024522620617264622,0.002719410803071523,-0.0019459702331338763
166.5,-0.0031374901819080448,0.0020341826828899406,-0.002099442958718058
167.0,-0.003368984365594114,0.0018026884992038716,-0.0018890082611907884
167.5,-0.0035280046697976487,0.0016436681950003367,-0.0016786577132600687
168.0,-0.003846142339103924,0.0013255305256940613,-0.0016859035727436987
168.5,-0.004025529513474296,0.0011461433513236894,-0.0016015765207324961
169.0,-0.004377589936139068,0.0007940829286589178,-0.0017281513842625838
169.5,-0.004272636292316992,0.0008990365724809938,-0.001428940889350755
170.0,-0.004059528245370997,0.0011121446194269887,-0.001047391798861309
170.5,-0.0040896355824009915,0.001082037282396994,-0.0009307372351245089
171.0,-0.004268718951150614,0.000902953913647371,-0.0009816193331278033
171.5,-0.0042010309943172645,0.0009706418704807209,-0.0008019817359228155
172.0,-0.0047464481173061105,0.0004252247474918749,-0.0012500361090349073
172.5,-0.00501176265580954,0.00015991020898844556,-0.0014314252160831055
173.0,-0.005098352054145232,7.332081065275324e-05,-0.0014467918469558017
173.5,-0.005011564692789482,0.00016010817200850375,-0.0013010864648851763
174.0,-0.005171672864797985,0.0,-0.001414458176552129
174.5,-0.0046395543368895915,0.0005321185279083939,-0.0008478855595960798
175.0,-0.005008523086021822,0.0001631497787761638,-0.0011949640201860212
175.5,-0.004773093839495569,0.000398579025302416,-0.0009506312950878716
176.0,-0.004415739387596926,0.0007559334772010593,-0.0005978878523760309
176.5,-0.00446316848158546,0.0007085043832125255,-0.0006640384785549943
177.0,-0.004288180367378712,0.0008834924974192738,-0.0005225101671152473
177.5,-0.004469861844785153,0.0007018110200128326,-0.0007530117653116735
178.0,-0.0034839771609332542,0.0016876957038647312,0.0001681143187860011
178.5,-0.003961456642238831,0.0012102162225591543,-0.00039055790780690575
179.0,-0.0032411248213710868,0.0019305480434268986,0.0002317722309025591
179.5,-0.003642896762686312,0.0015287761021116732,-0.00028502697430696396
180.0,-0.003527193674795152,0.0016444791900028333,-0.0003014001222120615
180.5,-0.002940808193514969,0.0022308646712830165,0.0001360618027184679
181.0,-0.0032240860884986443,0.001947586776299341,-0.00031253300620457877
181.5,-0.002741691121197369,0.0024299817436006163,-1.1120445606977846e-05
182.0,-0.002848015697386451,0.0023236571674115345,-0.00031307630728470226
182.5,-0.002816017821185359,0.0023556550436126264,-0.0004900460270369834
183.0,-0.0027192339012169584,0.002452438963581027,-0.0006139586060115772
183.5,-0.0024024574310947855,0.0027692154337032,-0.0005277151371413488
184.0,-0.002240883160128853,0.0029307897046691326,-0.0006043516606339394
184.5,-0.002164815847670065,0.0030068570171279205,-0.0007717752278268339
185.0,-0.001760834727070202,0.0034108381377277834,-0.0006139637590847841
185.5,-0.0019126530107272048,0.0032590198540707804,-0.0010118681729262263
186.0,-0.0015173802043888368,0.0036542926604091483,-0.00085972341416851
186.5,-0.00149794903354083,0.0036737238312571554,-0.0010775287995462603
187.0,-0.0012465129745476504,0.0039251598902503345,-0.0010545020991915297
187.5,-0.0010284357233400127,0.004143237141457973,-0.0010531269857262018
188.0,-0.0010133699583590788,0.004158302906438907,-0.0012402894487003177
188.5,-0.0005531333975084326,0.004618539467289553,-0.0009652094281108557
189.0,-0.0005141122258095998,0.0046575606389883855,-0.0010918960799645534
189.5,-0.0003369653358409004,0.004834707528957085,-0.0010588985988232904
190.0,-0.0003773430285984235,0.004794329836199562,-0.0012200649306803755
190.5,-0.0005307545104342052,0.0046409183543637805,-0.0014694416461088228
191.0,-3.157199967382532e-05,0.00514010086512416,-0.0010403020035390188
191.5,-0.00010455339445709631,0.005067119470340889,-0.0011566836724349779
192.0,0.0002331273597185396,0.005404800224516525,-0.0008354250813542557
192.5,-0.00012250464788862402,0.005049168216909362,-0.0011805473693698712
193.0,0.0004475749456904764,0.005619247810488462,-0.000573442643718892
193.5,0.00013898806682101497,0.005310660931619001,-0.0008192563123919378
194.0,0.0007273139145553397,0.005898986779353325,-0.00014350099979536148
194.5,0.0011105074248406756,0.006282180289638661,0.0003503942427339505
195.0,0.001339211788361683,0.0065108846531596685,0.0007114335611587063
195.5,0.0009546602906612882,0.006126333155459273,0.0004789967845771825
196.0,0.001022435351766206,0.006194108216564191,0.0007166413838578002
196.5,0.001046359292853477,0.006218032157651462,0.0009260371857574686
197.0,0.0011600581258540106,0.006331730990651996,0.0012385739555220024
197.5,0.0011261727496760495,0.006297845614474035,0.0014146151455127279
198.0,0.0010632834406171716,0.0062349563054151565,0.0015704627359977106
198.5,0.0006947771748755523,0.0058664500396735375,0.0014272618899108906
199.0,0.00020295127810404187,0.005374624142902028,0.0011651382589225028
199.5,-0.0003343042319917121,0.004837368632806273,0.0008599098137411845
200.0,-0.0007518102165036229,0.004419862648294363,0.0006748082629782575
200.5,-0.0005709801917863558,0.00460069267301163,0.0010866175966706307
201.0,-0.001064816058059039,0.004106856806738946,0.000820693982273777
201.5,-0.0012006469393277567,0.003971025925470229,0.0009082379591009897
202.0,-0.0011485465005052035,0.004023126364292782,0.0011778837832848387
202.5,-0.0012618011994472063,0.003909871665350779,0.0012752337765021293
203.0,-0.0011704587754884485,0.004001214089309537,0.0015693087603119013
203.5,-0.0016183243591716414,0.003553348505626344,0.001315547626899968
204.0,-0.0018204326418334443,0.003351240222964541,0.0012983280755774445
204.5,-0.0016692537911449671,0.0035024190736530183,0.0016247513114283929
205.0,-0.0018658569227270672,0.003305815942070918,0.001593467376872298
205.5,-0.00281660265437442,0.002355070210423565,0.0007979700550673314
206.0,-0.003035792524408913,0.0021358803403890726,0.0007239340022891464
206.5,-0.0029149334672396005,0.002256739397558385,0.0009799363191747845
207.0,-0.002367101712676568,0.0028045711521214175,0.0016530785551180658
207.5,-0.0028475888268559746,0.0023240840379420108,0.0012883267425072972
208.0,-0.0018694817795527228,0.0033021910852452626,0.0023729178422282828
208.5,-0.0018605585157506527,0.0033111143490473327,0.0024794513401762757
209.0,-0.0018529238251372925,0.003318749039660693,0.0025762413714487085
209.5,-0.0017611441876627335,0.003410528677135252,0.0027491708197028304
210.0,-0.0019401215628978604,0.0032315513019001247,0.0026438075083689816
210.5,-0.0017251039884755759,0.0034465688763224093,0.0029253846658613115
211.0,-0.001772872427770099,0.0033988004370278865,0.002937606239675959
211.5,-0.0021471067964728215,0.003024566068325164,0.0026172741172023266
212.0,-0.001737329251842201,0.0034343436129557845,0.0030753391342161923
212.5,-0.0017594366681269792,0.0034122361966710062,0.0030963638942340865
213.0,-0.001959753543031316,0.0032119193217666694,0.002934466086862997
213.5,-0.0017134536112453002,0.003458219253552685,0.003214893952471
214.0,-0.001725173962089443,0.0034464989027085426,0.003233410013416175
214.5,-0.0016944223330175444,0.003477250531780441,0.003290882314437064
215.0,-0.0017459455853602631,0.003425727279437722,0.003262915079877556
215.5,-0.0012365292706904448,0.00393514359410754,0.0037930487953021274
216.0,-0.0013374972940623652,0.0038341755707356202,0.0037102606267918332
216.5,-0.0015583528915280405,0.003613319973269945,0.003505323884971889
217.0,-0.0012768139825256176,0.0038948588822723678,0.003800773403469556
217.5,-0.0010572187167837803,0.004114454148014205,0.004032500948887489
218.0,-0.0009543245157882492,0.004217348349009736,0.004145957305720503
218.5,-0.0007318220968963437,0.004439850767901642,0.004377639498419757
219.0,-0.0008353601856540146,0.00433631267914397,0.004282067402032843
219.5,-0.0004390577556032735,0.004732615109194712,0.004685272865533283
220.0,-0.000707810584402064,0.004463862280395922,0.004422494528449908
