wavelength,absorbance,absorbance_bk,residual_3gauss,Gauss_1,Gauss_2,Gauss_3,Gauss_4,Gauss_fit
117.0,0.4794963411580502,0.4812573707441895,-0.007677818686055382,4.5883357976986385e-07,1.3501059510902654e-34,0.4889347305966651,1.242388624032509e-59,0.4889351894302449
117.5,0.47717874994930143,0.47893977953544076,-0.006538905510902193,8.484214370400679e-07,1.758829079217178e-33,0.4854778366249059,2.2660212885344576e-58,0.48547868504634295
118.0,0.47236988208375513,0.47413091166989446,-0.007305703555768983,1.5390789183181816e-06,2.1460565546800747e-32,0.48143507614674513,3.905112290349885e-57,0.48143661522566344
118.5,0.47170472141076136,0.4734657509969007,-0.003374133860835349,2.740212928398531e-06,2.4559514385649287e-31,0.47683714464480764,6.365811761516575e-56,0.47683988485773604
119.0,0.4692009317970747,0.47096196138321406,-0.0007585236422270603,4.790258203370878e-06,2.6396402594236228e-30,0.47171569476723774,9.826556315398158e-55,0.4717204850254411
119.5,0.4649427891513752,0.46670381873751454,0.0005924962556781432,8.225409822989533e-06,2.6680111163622074e-29,0.4661030970720134,1.437943793511092e-53,0.4661113224818364
120.0,0.4635899551842041,0.4653509847703434,0.0053048938402724954,1.3878703703059603e-05,2.5392571350792854e-28,0.46003221222636786,1.99678194460095e-52,0.46004609093007093
120.5,0.45831258126228414,0.46007361084842346,0.006514415465267431,2.3019598422285623e-05,2.2784900523090305e-27,0.45353617578473376,2.6339796464813083e-51,0.45355919538315603
121.0,0.45312241412752274,0.4548834437136621,0.008197701176290761,3.754610844732493e-05,1.929930276333646e-26,0.446648196428924,3.303863481187976e-50,0.4466857425373713
121.5,0.4455811606655492,0.44734219025168853,0.007880578788594716,6.024313452542227e-05,1.5449358345078512e-25,0.4394013683285684,3.944434835191929e-49,0.4394616114630938
122.0,0.438689720438674,0.4404507500248133,0.008527130374741676,9.512158036441751e-05,1.170205029616464e-24,0.43182849806970725,4.486587045901697e-48,0.43192361965007164
122.5,0.4313916598454847,0.43315268943162405,0.009042890323029074,0.00014785270248722916,8.396394586784269e-24,0.42396194640610774,4.866563366403771e-47,0.424109799108595
123.0,0.421211020374915,0.4229720499610543,0.00691225462563122,0.00022631042345674275,5.713318140643283e-23,0.41583348491196637,5.0384966414837644e-46,0.4160597953354231
123.5,0.411068090626508,0.41282912021264734,0.0050137222069178145,0.00034123054908247527,3.6908205187116245e-22,0.40747416745664705,4.983568343495462e-45,0.4078153980057295
124.0,0.40101071161709045,0.4027717412032298,0.003350535395429899,0.0005069895258085153,2.26599988423706e-21,0.39891421628199136,4.713252469401336e-44,0.3994212058077999
124.5,0.39129937646547946,0.3930604060516188,0.0021349874589500217,0.0007424962524340561,1.3235863283126972e-20,0.3901829223402347,4.265927508878487e-43,0.39092541859266877
125.0,0.38056300271076954,0.38232403229690887,-5.670559707510181e-05,0.0010721784486421523,7.362797625202659e-20,0.3813085594453418,3.698130479560794e-42,0.38238073789398397
125.5,0.37021557457424253,0.37197660416038186,-0.0018687379710365937,0.0015270304296215902,3.9044913455322974e-19,0.37231831170179686,3.0731415370086693e-41,0.37384534213141846
126.0,0.3597070021912112,0.36146803177735054,-0.003915854306325017,0.00214567248181247,1.9757872445708774e-18,0.3632382136018631,2.4499787815566294e-40,0.36538388608367556
126.5,0.350757143899148,0.35251817348528736,-0.004550283090219653,0.002975354451458821,9.549566234640096e-18,0.35409310212404815,1.875261475827457e-39,0.357068456575507
127.0,0.3412934962737232,0.3430545258598625,-0.005924873400864672,0.004072819139790247,4.412648087037717e-17,0.3449065801209369,1.3791581284235972e-38,0.3489793992607272
127.5,0.3333111818049563,0.3350722113910956,-0.006133705356823171,0.0055049264952803855,1.9511136277223193e-16,0.3357009902526382,9.753148331919123e-38,0.3412059167479188
128.0,0.32575905857408904,0.3275200881602284,-0.006326240017342388,0.007348929475955622,8.262664801142579e-16,0.3264973987016143,6.637017392312012e-37,0.33384632817757076
128.5,0.3196114549630608,0.32137248454920014,-0.005635392270674056,0.009692288925266555,3.3542092792862235e-15,0.3173155878946043,4.349210783367985e-36,0.3270078768198742
129.0,0.31381689301223065,0.31557792259837,-0.0052280546172084885,0.012631919759149799,1.3063587199103533e-14,0.30817405745641563,2.7463930985468036e-35,0.32080597721557846
129.5,0.3091211882306909,0.31088221781683023,-0.0044805904398807495,0.01627277562905058,4.885384148475249e-14,0.2990900326276115,1.6723553777299607e-34,0.315362808256711
130.0,0.3055695309428956,0.3073305605290349,-0.003474623581855907,0.02072570471838524,1.7557099118754673e-13,0.29007947939233,9.826540200979422e-34,0.3108051841108908
130.5,0.30299701557955105,0.3047580451656904,-0.002503625653555497,0.02610454523593486,6.068350421780386e-13,0.28115712558270417,5.575262052909371e-33,0.3072616708192459
131.0,0.3014171868703052,0.30317821645644455,-0.0016807450179724404,0.03252247422077384,2.0187890557171654e-12,0.27233648725162435,3.0563486558883046e-32,0.304858961474417
131.5,0.3008660899499726,0.30262711953611193,-0.0010904552236556952,0.040087675118362316,6.469114560944233e-12,0.2636298996349362,1.6198991049485349e-31,0.30371757475976763
132.0,0.30202733674378407,0.3037883663299234,-0.00015863063272147926,0.04889844488580615,1.998280284437871e-11,0.25504855205685595,8.305949065020266e-31,0.3039469969626449
132.5,0.30407876632535374,0.3058397959114931,0.00019935366127871168,0.05903791602314243,5.954464249717374e-11,0.2466025261675273,4.122588265120898e-30,0.30564044225021436
133.0,0.3075575632080004,0.3093185927941397,0.00044913733616885887,0.07056861834805048,1.7128288124375635e-10,0.23830083693863752,1.9819275537780212e-29,0.30886945545797084
133.5,0.3129927883687956,0.31475381795493496,0.0010751966613684605,0.08352714493642731,4.759636763683351e-10,0.23015147588117552,9.234110857007481e-29,0.3136786212935665
134.0,0.3190272082559516,0.32078823784209093,0.0007075683231563268,0.0979192122521891,1.2785548388768647e-09,0.22216145598819065,4.171949731082875e-28,0.3200806695189346
134.5,0.32689704947459,0.3286580790607293,0.0006058050499693768,0.11371541274409411,3.3223195023406382e-09,0.21433685794434632,1.8287815107033855e-27,0.3280522740107599
135.0,0.33600219436236844,0.3377632239485078,0.00023239143155084907,0.13084794697779323,8.356502063473115e-09,0.20668287718266162,7.782165961948524e-27,0.3375308325169569
135.5,0.34635499635713224,0.34811602594327157,-0.00029645690047730433,0.1492085910783568,2.035857267768823e-08,0.1992038714068194,3.216528171219716e-26,0.34841248284374887
136.0,0.358033482461031,0.35979451204717033,-0.0007570491545879632,0.16864810489644738,4.80709267818564e-08,0.19190340823438412,1.2919627739680474e-25,0.3605515612017583
136.5,0.3711999800439008,0.37296100963004014,-0.0008006326039464162,0.1889772195048534,1.1007709992112464e-07,0.18478431265203327,5.045583017445983e-25,0.37376164223398656
137.0,0.3850668188391816,0.3868278484253209,-0.0009903736164463828,0.20996926343598216,2.445975595734423e-07,0.1778487140082256,1.916857643873064e-24,0.3878182220417673
137.5,0.4005571897276148,0.4023182193137541,-0.00014480135586919518,0.23136440064791178,5.277202777798735e-07,0.17109809230143375,7.087605584334442e-24,0.4024630206696233
138.0,0.41658192508896946,0.4183429546751088,0.0009331596039811596,0.2528753653974506,1.1061206176256948e-06,0.16453332355305947,2.551820489529691e-23,0.41740979507112763
138.5,0.4329367471607148,0.4346977767468541,0.0023463029479287023,0.2741944960289448,2.2536866662310793e-06,0.15815472408331438,8.950496219875253e-23,0.4323514737989254
139.0,0.4486778029064191,0.45043883249255845,0.003470476112315435,0.29500179686094147,4.465983649802682e-06,0.1519620935356518,3.0597921734019334e-22,0.446968356380243
139.5,0.46360557759767296,0.4653666071838123,0.004429538792228738,0.3149736997821615,8.612088683208133e-06,0.1459547565207389,1.019957231668068e-21,0.46093706839158355
140.0,0.476397931894619,0.4781589614807583,0.004219030565652815,0.33379215858846556,1.6169552193689046e-05,0.14013160277444625,3.3167342882415703e-21,0.4739399309151055
140.5,0.48700124021093255,0.4887622697970719,0.0030878781817827994,0.3511536917894516,2.957407987160498e-05,0.1344911257459659,1.052610562494101e-20,0.4856743916152891
141.0,0.4950422403639328,0.4968032699500721,0.0009410968590705671,0.3667779942898729,5.271924921403082e-05,0.12903145955191467,3.2616622101105615e-20,0.49586217309100156
141.5,0.501200157435429,0.5029611870215683,-0.0012966320554314015,0.3804157641338897,9.164069284800274e-05,0.12375041425026204,9.872034955621157e-20,0.5042578190769997
142.0,0.5054405834774608,0.5072016130636001,-0.003454742044801895,0.3918554350809899,0.0001554106232607925,0.11864550940415126,2.919775645969909e-19,0.510656355108402
142.5,0.508551127310683,0.5103121568968223,-0.004587663828916622,0.400928565669269,0.00025724913623803575,0.11371400592023187,8.441945140615368e-19,0.5148998207257389
143.0,0.5105589584896252,0.5123199880757645,-0.00456248022151684,0.40751370627137357,0.00041582586677399485,0.1089529361591338,2.3870281888962854e-18,0.5168824682972814
143.5,0.5112231967129696,0.5129842262991089,-0.0035702271306585764,0.4115386426442644,0.0006566784583513567,0.10435913232715174,6.6033290061998095e-18,0.5165544534297675
144.0,0.5093629766177715,0.5111240062039109,-0.002799854688442238,0.4129809927107278,0.0010136150133127915,0.09992925316831253,1.7878200773347744e-17,0.5139238608923531
144.5,0.5052039045785433,0.5069649341646826,-0.00209198512772113,0.4118672081553069,0.0015299021523865327,0.09565980898471024,4.739167862803053e-17,0.5090569192924037
145.0,0.4993950933075407,0.5011561228936801,-0.000920140659005475,0.4082700998143551,0.002258978717807449,0.09154718502052285,1.2304290551824623e-16,0.5020762635526855
145.5,0.4920771269178355,0.49383815650397483,0.0006810393104246804,0.40230506254391446,0.00326439139814611,0.08758766325148928,3.1299904204712933e-16,0.49315711719355015
146.0,0.4833994008881902,0.48516043047432955,0.00263913040701258,0.3941252189716312,0.004618638468743915,0.08377744262694102,7.803943803698685e-16,0.48252130006731697
146.5,0.4722212873679864,0.47398231695412574,0.003553281849960954,0.3839157310083252,0.0064006462799882586,0.08011265781584943,1.9077426074581494e-15,0.4704290351041648
147.0,0.458557034137908,0.4603180637240473,0.0031494240527350503,0.37188754293393883,0.008691700225554598,0.07658939651181432,4.574113244814057e-15,0.45716863967131227
147.5,0.4432386354702393,0.4449996650563786,0.001955319483757989,0.35827082090664003,0.011569809311354767,0.07320371535461503,1.0760184096072605e-14,0.4430443455726206
148.0,0.4267371942355877,0.42849822382172703,0.00013553570953028782,0.3433083422544307,0.015102691329837652,0.06995165452790354,2.4842744835798097e-14,0.42836268811219674
148.5,0.41047398753362285,0.4122350171197622,-0.0011831016036010222,0.32724906585265606,0.019339801776713808,0.06682925109393704,5.6309970212683717e-14,0.4134181187233632
149.0,0.3968600283982832,0.39862105798442254,0.00014236135957607088,0.31034208460309404,0.024304060894620675,0.06383255112700639,1.2534672548947645e-13,0.3984786966248465
149.5,0.38322369984574545,0.3849847294318848,0.0012118637629536244,0.2928311250262175,0.029984119934996892,0.06095762070744264,2.741045447943577e-13,0.38377286566893115
150.0,0.3693409805988228,0.37110201018496214,0.0016236241806016904,0.27494971977304694,0.03632811039282779,0.05820055583789669,5.890146417565737e-13,0.36947838600436045
150.5,0.35514415599162613,0.35690518557776546,0.0011907483515130601,0.2569171388159227,0.04323980706610706,0.05555749134297842,1.2441454747196235e-12,0.3557144372262524
151.0,0.34080325760735347,0.3425642871934928,2.6560976171152717e-05,0.23893512627129512,0.050577991131015736,0.05302460881242688,2.583911671791298e-12,0.34253772621732165
151.5,0.32665873251404753,0.32841976210018686,-0.0015233628091652074,0.22118545396305095,0.05815952729425799,0.050598143646765154,5.278000710624281e-12,0.32994312490935207
152.0,0.31315236710773214,0.3149133966938715,-0.0029555616546383945,0.20382827126402603,0.06576629581094026,0.04827439126293712,1.0606401438346812e-11,0.31786895834850987
152.5,0.30156400372302566,0.303325033309165,-0.0028815749587761674,0.18700120434577214,0.07315569138541593,0.04604971251577853,2.0974557835764027e-11,0.30620660826794116
153.0,0.2912072549568596,0.29296828454299895,-0.0018453660373831116,0.17081913720462988,0.0800739749455761,0.043920538389347834,4.082825348193382e-11,0.29481365058038206
153.5,0.2812192196446521,0.2829802492307914,-0.0005491189780891248,0.15537459183031038,0.08627140229011561,0.04188337401020408,7.825047160311228e-11,0.28352936820888053
154.0,0.2708286581897128,0.27258968777585213,0.00039846066396975743,0.14073861544210156,0.09151780948940552,0.039934802032674035,1.4770123384270434e-10,0.2721912271118824
154.5,0.259253664629156,0.26101469421529533,0.0003638844105351424,0.12696207838942036,0.09561724569667028,0.03807148544402998,2.74639523931415e-10,0.2606508098047602
155.0,0.24776415306702596,0.24952518265316528,0.0007374022752972831,0.11407728646868953,0.09842032357064677,0.03629016983534116,5.031905044990605e-10,0.248787780377868
155.5,0.23563180220551896,0.2373928317916583,0.0008721359565742326,0.10209981530368036,0.09983319444118091,0.03458768518156769,9.086551002032331e-10,0.23652069583508406
156.0,0.2224398705909179,0.22420090017705724,0.0003870546673289399,0.09103048127432596,0.09982241544554696,0.03296094717226803,1.6175873284468514e-09,0.2238138455097283
156.5,0.20933044260536368,0.211091472191503,0.0004117303875049161,0.08085737246108349,0.09841540837131736,0.03140695813210074,2.8394965255784173e-09,0.2106797418039981
157.0,0.19637975034370417,0.1981407799298435,0.000963437633841463,0.07155787344110394,0.0956966563706626,0.029922807568133054,4.9161024347208925e-09,0.19717734229600203
157.5,0.1834254678905325,0.18518649747667182,0.0017799995118509826,0.06310062884466723,0.09180018834467597,0.0285056723788345,8.396643133434959e-09,0.18340649796482084
158.0,0.16987879938881767,0.171639828974957,0.002140381156805121,0.05544740176599206,0.08689921514342237,0.027152816757543462,1.415119397720271e-08,0.16949944781815188
158.5,0.1559103459575684,0.15767137554370772,0.002060989730679419,0.048554793938200495,0.08119397651516785,0.025861591821160986,2.353849894840083e-08,0.1556103858130283
159.0,0.14188626181055575,0.14364729139669508,0.0017430914316101942,0.04237580465403966,0.074898921667561,0.02462943499284358,3.865064063154664e-08,0.14190419996508488
159.5,0.12754770505291677,0.1293087346390561,0.0007633018535639358,0.03686121447460057,0.068230286481179,0.023453869165561473,6.266415112284554e-08,0.12854543278549216
160.0,0.11354567876583493,0.11530670835197425,-0.0003816503002681687,0.0319607876481075,0.06139496899659034,0.022332501671542927,1.0033600165302709e-07,0.11568835865224242
160.5,0.09989169192263885,0.10165272150877816,-0.0018161278354783539,0.02762429377659312,0.054581373793500934,0.021263023080856903,1.586933055452505e-07,0.10346884934425651
161.0,0.08711945199435485,0.08888048158049416,-0.003117958134853535,0.023802354608738367,0.04795263127854266,0.020243205850697114,2.4797736957050137e-07,0.0919984397153477
161.5,0.07580647370096294,0.07756750328710225,-0.0037932425518779206,0.020447125948633366,0.04164233412948415,0.01927090284530713,3.82915555546593e-07,0.08136074583898018
162.0,0.06613706536180713,0.06789809494794645,-0.003712061596276184,0.017512827642237987,0.03575269874941958,0.018344045744955396,5.84407609670596e-07,0.07161015654422263
162.5,0.05758362974468886,0.05934465933082818,-0.003427876826952461,0.01495613655476563,0.030354874516423904,0.01746064336090159,8.817256895206055e-07,0.06277253615778064
163.0,0.05028666794907265,0.05204769753521196,-0.002799854470985172,0.012736458519815188,0.02549099827656361,0.01661877987191539,1.3153379029466626e-06,0.054847552006197134
163.5,0.04424864519646237,0.046009674782601685,-0.0018025016043843323,0.01081609556886352,0.021177527349500753,0.015816612996601424,1.9404720203271026e-06,0.04781217638698602
164.0,0.03894230033394826,0.04070332992008757,-0.00092157365215359,0.009160324481072313,0.01740937543959358,0.015052372114547817,2.8315370274515296e-06,0.04162490357224116
164.5,0.03468110371361351,0.03644213329975283,0.00021187603405268401,0.007737401964608624,0.014164411439960488,0.014324356348161609,4.087512969426353e-06,0.036230257265700144
165.0,0.031153667293520527,0.032914696879659845,0.001351467318877475,0.006518510716594421,0.011407947826650004,0.01363093261596135,5.83840157659584e-06,0.03156322956078237
165.5,0.028135803132058487,0.029896832718197805,0.002343457442090746,0.005477659319867257,0.009096929490155153,0.012970533667080657,8.252799003990078e-06,0.02755337527610706
166.0,0.0256926743252552,0.02745370391139452,0.0033253305290257204,0.004591547515452622,0.0071836231556111204,0.012341656105782518,1.1546605522537641e-05,0.024128373382368798
166.5,0.023374574112140774,0.025135603698280093,0.003918653341049103,0.0038394069182881257,0.00561869220137328,0.0117428584138956,1.5992823673986135e-05,0.02121695035723099
167.0,0.02126128063500115,0.023022310221140468,0.00427117826234057,0.003202825782714743,0.004353614882110216,0.011172758978257973,2.1932315716966438e-05,0.018751131958799898
167.5,0.019478462180680268,0.021239491766819586,0.0045716454670142286,0.0026655650212442897,0.003342461855142287,0.010630034129482279,2.978529393650161e-05,0.016667846299805358
168.0,0.018232973856446087,0.019994003442585406,0.005084062413867836,0.0022133713695800953,0.0025430902555258067,0.010113416197647555,4.006320596411446e-05,0.01490994102871757
168.5,0.01732876645256251,0.01908979603870183,0.005663094359027765,0.0018337923957425326,0.001917837138177436,0.009621691589860426,5.338055589366935e-05,0.013426701679674065
169.0,0.016224086784834692,0.01798511637097401,0.0058111473850448545,0.0015159969847115507,0.001433807030356258,0.0091536988940221,7.046607683924794e-05,0.012173968985929156
169.5,0.01549018752349926,0.01725121710963858,0.006137264080316921,0.0012506039976367543,0.001062849469425435,0.008708327012576239,9.217254968322877e-05,0.011113953029321657
170.0,0.014901443699467198,0.016662473285606515,0.006447638696278547,0.0010295210056147398,0.0007813157985004459,0.008284513329496137,0.00011948445571664466,0.010214834589327967
170.5,0.01412175056221554,0.01588278014835486,0.006432548304899305,0.0008457943269040494,0.0005696730348402741,0.00788124191329859,0.00015352256841264016,0.009450231843455554
171.0,0.01377734968637326,0.015538379272512576,0.006739783161034834,0.0006934710445751916,0.0004120387655875728,0.007497541758437155,0.00019554454287782402,0.008798596111477743
171.5,0.012966985937893407,0.014728015524032724,0.006485429985777861,0.0005674732382049814,0.0002956866716426693,0.00713248506703346,0.00024694056137375273,0.008242585538254863
172.0,0.012327866817094378,0.014088896403233696,0.0063204445866363555,0.00046348431637005646,0.00021055877858422453,0.006785185572544301,0.0003092231490987585,0.007768451816597341
172.5,0.011799453008474887,0.013560482594614204,0.006195019505970243,0.0003778470740113175,0.00014880871481139866,0.00645479690663552,0.0003840103931857248,0.007365463088643961
173.0,0.01120121866263638,0.012962248248775697,0.0059368718204185714,0.00030747290802194966,0.00010439052684157932,0.00614051101023728,0.0004730019832563169,0.007025376428357126
173.5,0.010849545482599875,0.012610575068739194,0.00586860919829037,0.00024976149402859845,7.270004360304657e-05,0.005841556589486806,0.0005779477433303728,0.006741965870448824
174.0,0.010343613875582946,0.012104643461722263,0.005594036801302912,0.00020253014652535454,5.027025978774312e-05,0.005557197617024538,0.0007006086370817146,0.006510606660419351
174.5,0.009929667074171939,0.011690696660311257,0.005362783689934572,0.0001639520435602486,3.451845696196232e-05,0.005286731878892173,0.0008427105909623023,0.006327912970376686
