wavelength,absorbance,absorbance_bk,residual_3gauss
117.0,0.8791615880674464,0.8800981228610424,-0.0008611779674495557
117.5,0.8740262299773177,0.8749627647709137,-0.0008342936214820185
118.0,0.8630002552604595,0.8639367900540555,-0.005373383021862743
118.5,0.8601642512145309,0.8611007860081269,-0.00043524071365785844
119.0,0.8522459316343085,0.8531824664279045,0.0006627010445177106
119.5,0.8439194858247182,0.8448560206183142,0.0025415952082223914
120.0,0.8307558420343742,0.8316923768279703,0.0007112914169504769
120.5,0.8208444595801021,0.8217809943736981,0.003191943293324506
121.0,0.8053562288351808,0.8062927636287768,0.0010766856895516597
121.5,0.7959950209834205,0.7969315557770165,0.005982921564995802
122.0,0.779038992398077,0.779975527191673,0.004093324974238199
122.5,0.761727786204211,0.762664320997807,0.0025427092417299457
123.0,0.743344869234885,0.744281404028481,0.0005000110100540356
123.5,0.7264739662160785,0.7274105010096745,0.0004243714280214306
124.0,0.7076288316149382,0.7085653664085342,-0.0013054178578937314
124.5,0.6889636816697018,0.6899002164632978,-0.002680745774781279
125.0,0.6702164594946121,0.6711529942882081,-0.004120072837286992
125.5,0.6524446195490178,0.6533811543426138,-0.0047331432345733004
126.0,0.6353580410402758,0.6362945758338718,-0.004987848336544198
126.5,0.6190497993646659,0.6199863341582619,-0.004978946470486689
127.0,0.6041820866856923,0.6051186214792883,-0.004241278172512741
127.5,0.5903713117019007,0.5913078464954967,-0.0033633766243755803
128.0,0.5786413287747494,0.5795778635683454,-0.0015324562241920692
128.5,0.5676280869664131,0.5685646217600091,-0.00032742982459732506
129.0,0.5582648137826518,0.5592013485762478,0.000969205937093709
129.5,0.5507174470254789,0.5516539818190749,0.00231035775066446
130.0,0.5457762920706333,0.5467128268642293,0.0042801754172347994
130.5,0.5418044815994847,0.5427410163930807,0.005047294788067536
131.0,0.540232963238975,0.541169498032571,0.005865148777393303
131.5,0.540197718995469,0.541134253789065,0.005714952457783307
132.0,0.5421964069342436,0.5431329417278397,0.004968415720506991
132.5,0.5468951170382719,0.5478316518318679,0.0042006996372230265
133.0,0.55395937850074,0.554895913294336,0.0030275417591052456
133.5,0.5630111264651568,0.5639476612587528,0.001068015293690383
134.0,0.5751391226417383,0.5760756574353343,-0.0005398497517115075
134.5,0.589459894086772,0.590396428880368,-0.0025737984857245877
135.0,0.6060561582135784,0.6069926930071744,-0.004785747847091737
135.5,0.625355220576922,0.6262917553705181,-0.006521627750703751
136.0,0.6471852637521857,0.6481217985457817,-0.007664985838708227
136.5,0.67132272066418,0.672259255457776,-0.008091356230009672
137.0,0.69761266705661,0.698549201850206,-0.007551593516423205
137.5,0.7266022028632747,0.7275387376568707,-0.005044268381996897
138.0,0.7565691057084362,0.7575056405020322,-0.0017948290500462427
138.2,0.7684220055628604,0.7693585403564565,-0.000577030837441761
138.4,0.7803917732014184,0.7813283079950144,0.0008394718654324285
138.6,0.7913905066966673,0.7923270414902633,0.0014021973867365256
138.8,0.8031601442720061,0.8040966790656021,0.002888786697587409
139.0,0.8144184484535234,0.8153549832471194,0.004052847135814663
139.2,0.8245021871794816,0.8254387219730777,0.00426698854826324
139.4,0.8352439988439021,0.8361805336374981,0.005399539464666203
139.6,0.8448845882615117,0.8458211230551077,0.005726590960194122
139.8,0.8537749022818039,0.8547114370753999,0.005634017633664001
140.0,0.8621628872920721,0.8630994220856681,0.005404078665947942
140.2,0.8701420101576781,0.8710785449512741,0.005163781252926936
140.4,0.8773279722122097,0.8782645070058057,0.004561436789531914
140.6,0.8834182506929901,0.8843547854865861,0.0033260449783905077
140.8,0.8889360282592328,0.8898725630528288,0.002011067289509616
141.0,0.8941171760438048,0.8950537108374008,0.0008812560194484398
141.2,0.8989464670104135,0.8998830018040095,-5.1283474665653195e-05
141.4,0.9024579665224445,0.9033945013160405,-0.0017268496520544963
141.6,0.9060709357450002,0.9070074705385962,-0.002702384343338471
141.8,0.9092890036054804,0.9102255383990764,-0.003452438444321748
142.0,0.9121118410982376,0.9130483758918336,-0.0039576291460549085
142.2,0.9146475748821888,0.9155841096757849,-0.004092350931962141
142.4,0.9163007522857376,0.9172372870793336,-0.004436927402835078
142.6,0.9178090153757302,0.9187455501693262,-0.0042410454423310595
142.8,0.9187223036767991,0.9196588384703951,-0.003944651298643631
143.0,0.9191680514453041,0.9201045862389001,-0.003412841831373137
143.2,0.9188916102951251,0.9198281450887211,-0.002895519269617286
143.4,0.9185600668104222,0.9194966016040182,-0.0017236389788548578
143.6,0.9163918273793404,0.9173283621729365,-0.0016796771249866227
143.8,0.9146388652991331,0.9155754000927291,-0.0005154222984443679
144.0,0.910978032710828,0.911914567504424,-0.0005606876476321743
144.2,0.9069048630381225,0.9078413978317185,-0.000329516953127329
144.4,0.9021808760704119,0.9031174108640079,-7.287161456570601e-05
144.6,0.8968268272370932,0.8977633620306892,0.00021464387001524088
144.8,0.8914513889639252,0.8923879237575212,0.0011235066690361561
145.0,0.8849278434317329,0.8858643782253289,0.0015060307503288461
145.2,0.8780696943620102,0.8790062291556062,0.0021520607501159805
145.4,0.8701939084865904,0.8711304432801864,0.002352315897190538
145.6,0.8618669999786928,0.8628035347722888,0.0026445978263277548
145.8,0.8530521633612959,0.8539886981548919,0.0029610682216660855
146.0,0.8434978215700849,0.8444343563636809,0.0030169632311181083
146.2,0.8338658286370276,0.8348023634306236,0.0034389841900765994
146.4,0.8227783785107694,0.8237149133043654,0.002812416019210451
146.6,0.8116742295883029,0.8126107643818989,0.0025375824637660083
146.8,0.8003427545503774,0.8012792893439734,0.0023641470726371017
147.0,0.7882596502687095,0.7891961850623055,0.0017270936741434761
147.2,0.7757253375894062,0.7766618723830022,0.0008854147982898519
147.4,0.762426975486828,0.763363510280424,-0.0005155691810941887
147.6,0.7494835862516622,0.7504201210452582,-0.0013987656243804603
147.8,0.7362391006943638,0.7371756354879598,-0.0024619334401267956
148.0,0.7231441141718711,0.7240806489654671,-0.0032955872192355073
148.2,0.7098160733558537,0.7107526081494497,-0.0043224650508632
148.4,0.6976697694511085,0.6986063042447045,-0.00416668796164732
148.6,0.6858545515898102,0.6867910863834062,-0.003716201244270523
148.8,0.6744834953856599,0.6754200301792559,-0.002893266984455578
149.0,0.6632506453940172,0.6641871801876132,-0.002036893582866739
149.2,0.6525841144522405,0.6535206492458365,-0.0007494240258435481
149.4,0.6413565196611831,0.6422930544547791,-0.00018580798309286717
149.6,0.6305820823164349,0.6315186171100309,0.0006437647114871936
149.8,0.6194825600087541,0.6204190948023501,0.0009400326187312125
150.0,0.6094642267906892,0.6104007615842852,0.002091844562546852
150.5,0.5841516709301748,0.5850882057237708,0.0036373101079182346
151.0,0.5583890816747633,0.5593256164683593,0.0031411811820682978
151.5,0.5333331020745262,0.5342696368681222,0.0018067595337645237
152.0,0.5095157688946622,0.5104523036882582,0.0003565812155404968
152.5,0.487401606989269,0.48833814178286505,-0.00043241989986858576
153.0,0.4673432622743002,0.46827979706789624,0.00019339017405223258
153.5,0.4470292604539844,0.44796579524758046,0.0003700703159682517
154.0,0.42647197894020833,0.4274085137338044,0.000557247570004249
154.5,0.40389042851279267,0.40482696330638873,-0.0006260206275273683
155.0,0.3806326269789324,0.3815691617725285,-0.0015209579095737391
155.5,0.3571372585528174,0.3580737933464135,-0.001500161504365105
156.0,0.3317306107577339,0.33266714555133,-0.002190627430567471
156.5,0.30625437300815445,0.3071909078017505,-0.0018511898876782396
157.0,0.28063117996226483,0.2815677147558609,-0.0007973395106601333
157.5,0.254861660271478,0.25579819506507406,0.0006187162965683446
158.0,0.22899659357086927,0.2299331283644653,0.002013223205575121
158.5,0.2026122221653576,0.20354875695895364,0.0024851718270842704
159.0,0.17662163849271023,0.17755817328630627,0.0024680633522949635
159.5,0.15164054765862972,0.15257708245222576,0.0021330947104181985
160.0,0.12756554875394446,0.1285020835475405,0.0009983180081026277
160.5,0.10535412259978752,0.10629065739338357,-0.00026947584596098695
161.0,0.08580001816943923,0.08673655296303528,-0.001067564276856156
161.5,0.06880969270121688,0.06974622749481293,-0.001578944829774817
162.0,0.05407575205831212,0.05501228685190816,-0.0021056070539520466
162.5,0.04218753725869944,0.04312407205229549,-0.001971245615592025
163.0,0.03280828089026119,0.03374481568385724,-0.0013615854049368534
163.5,0.024750147981946163,0.025686682775542213,-0.0012685916880734796
164.0,0.01872060397244632,0.01965713876604237,-0.0007630001131164812
164.5,0.013980346627770068,0.014916881421366116,-0.00035329372162566305
165.0,0.010881941400140604,0.011818476193736651,0.0005390734462217585
165.5,0.007892014549379649,0.008828549342975696,0.0005915548311074201
166.0,0.005471647762448253,0.0064081825560443,0.00045414478940986915
166.5,0.004418324746567988,0.005354859540164036,0.0010877655617398709
167.0,0.0031579434832630718,0.004094478276859119,0.0010553464713094892
167.5,0.002427840660062108,0.0033643754536581555,0.0012058720027975046
168.0,0.001712069042295443,0.002648603835891491,0.0011119779019356335
168.5,0.0011843935329849387,0.0021209283265809864,0.0010159786703710387
169.0,0.0006267053620775275,0.0015632401556735752,0.0007515616998799503
169.5,0.0006612487156318056,0.0015977835092278532,0.000979208084042504
170.0,0.0007089462180061298,0.0016454810116021774,0.0011474141354484275
170.5,0.00041836305456158305,0.0013548978481576308,0.0009241429284655908
171.0,0.0005253212596777286,0.0014618560532737761,0.0010584838222649612
171.5,0.0002863721367697895,0.001222906930365837,0.0008157463389567137
172.0,2.6803634577050152e-05,0.0009633384281730978,0.0005267140204409555
172.5,0.0006699599871887592,0.0016064947807848068,0.001117898028324237
173.0,-5.323531685850534e-05,0.0008832994767375423,0.0003217460198130579
173.5,0.000309762998706993,0.0012462977923030406,0.0005911818719593553
174.0,0.00011577568435075992,0.0010523104779468077,0.00028261844017852394
174.5,0.00035357755726951547,0.0012901123508655631,0.00038389782587968735
175.0,0.0009077522873120837,0.0018442870809081313,0.0007783416861520838
175.5,0.0008381940871317378,0.0017747288807277856,0.0005244052621552113
176.0,0.0011054714635682227,0.00204200625716427,0.0005811664523112348
176.5,0.0009362055576303591,0.0018727403512264068,0.00017381328753832007
177.0,0.0016561201697553735,0.002592654963351421,0.0006267936682194373
177.5,0.001564439590158621,0.0025009743837546687,0.000238307211106523
178.0,0.002046219137081805,0.0029827539306778524,0.00039272560204527173
178.5,0.0026299230790405924,0.00356645787263664,0.0006182559929162178
179.0,0.002623324366500364,0.0035598591600964117,0.00022292055738865058
179.5,0.0028860776368988903,0.003822612430494938,6.720154170763038e-05
180.0,0.003232643800425548,0.004169178594021596,-3.297253472771527e-05
180.5,0.0031773694862376653,0.004113904279833713,-0.0005610991726714091
181.0,0.004360056541409415,0.005296591335005462,0.00012549955124459278
181.5,0.005533549420952892,0.0064700842145489395,0.0007832772266986891
182.0,0.005387666837983139,0.006324201631579186,0.00010638613228968006
182.5,0.005966749766694201,0.006903284560290248,0.0001441933294249985
183.0,0.0064751556850067785,0.007411690478602826,0.00010671866836846344
183.5,0.006957059966894208,0.007893594760490256,4.4355466533141374e-05
184.0,0.007152151167234506,0.008088685960830554,-0.00029653855160647995
184.5,0.007219271254708749,0.008155806048304797,-0.0007501271020847501
185.0,0.0074588263193283615,0.00839536111292441,-0.0010088295075545654
185.5,0.008417525532329492,0.00935406032592554,-0.0005187414745909565
186.0,0.008463347910722278,0.009399882704318326,-0.0009048381309433202
186.5,0.009443494792989143,0.01038002958658519,-0.00031319592064322707
187.0,0.009514704379567114,0.010451239173163162,-0.0005808510315613979
187.5,0.009485860501327697,0.010422395294923744,-0.0008933560019752131
188.0,0.010416279732547265,0.011352814526143312,-0.00018664426250452996
188.5,0.010611174357145562,0.01154770915074161,-0.00015169933033112523
189.0,0.010891291770604742,0.01182782656420079,3.497706689082128e-05
189.5,0.01099585285862972,0.011932387652225767,0.00011422472847717226
190.0,0.010825923479674223,0.011762458273270271,-1.2450148848949447e-05
190.5,0.01055940738156644,0.011495942175162487,-0.000167894759384217
191.0,0.010610339563925824,0.011546874357521872,6.000539032195891e-05
191.5,0.010764146610262511,0.011700681403858559,0.00045364207554799557
192.0,0.010235432142163452,0.0111719669357595,0.00022355639470692142
192.5,0.010607364225239764,0.011543899018835811,0.0009479406369141408
193.0,0.009989917669777188,0.010926452463373235,0.0007310184144868146
193.5,0.009962346371386065,0.010898881164982112,0.0011456728752199021
194.0,0.009673055178434855,0.010609589972030903,0.0013334865889731515
194.5,0.008760873195270183,0.00969740798886623,0.000926188848854646
195.0,0.008150267624045776,0.009086802417641824,0.0008410433340982522
195.5,0.007299419641110445,0.008235954434706493,0.0005290917649511387
196.0,0.00638939211287957,0.007325926906475618,0.00016447802863158063
196.5,0.005767473167555832,0.006704007961151879,8.793221621118154e-05
197.0,0.0050241420435789596,0.005960676837175007,-0.00011614267592322761
197.5,0.004432205465001627,0.005368740258597675,-0.00018043578344626495
198.0,0.0038294296893183134,0.004765964482914361,-0.0002720215982636755
198.5,0.0026677453228945262,0.0036042801164905738,-0.000943104827457378
199.0,0.002262588272658876,0.0031991230662549233,-0.0008816530724017413
199.5,0.001014266989633015,0.0019508017832290626,-0.0016900258426830192
200.0,0.0013410598262495808,0.0022775946198456284,-0.0009518940088018603
200.5,0.0007719229086884834,0.001708457702284531,-0.0011395666372059948
201.0,0.0010668300062535191,0.002003364799849567,-0.0004937006647258778
201.5,0.00036993254919301166,0.0013064673427890592,-0.0008702019714071293
202.0,-5.168213898938607e-05,0.0008848526546066616,-0.001001536436108277
202.5,0.00024330958282287095,0.0011798443764189186,-0.00044550373996323986
203.0,7.747554189814707e-05,0.0010140103354941948,-0.0003783056299140734
203.5,0.00022062098493820327,0.001157155778534251,-2.8628010252765594e-05
204.0,-0.00011134055713984769,0.0008251942364561999,-0.00017884228151836983
204.5,-0.00023969653833801557,0.0006968382552580321,-0.00014838182020276958
205.0,7.526983512307849e-05,0.001011804628719126,0.0003044024496632594
205.5,-0.0009365347935960476,0.0,-0.0005886257779043735
206.0,-0.00012521403541154206,0.0008113207581845056,0.0003243661767898121
206.5,-0.0003748077553761878,0.0005617270382198598,0.00016121651679975067
207.0,-0.00019036478313849407,0.0007461700104575535,0.000418666697605672
207.5,-0.00015395325744333853,0.0007825815361527091,0.0005163289958883563
208.0,-0.0005968718936463834,0.0003396628999496643,0.00012446000110020316
208.5,-0.0003997060277741394,0.0005368287658219083,0.00036389541013738774
209.0,-0.0001310663792032764,0.0008054684143927712,0.0006673073357687785
209.5,-0.0002786791507796188,0.0006578556428164288,0.0005481146320404859
210.0,-0.00012009025428132633,0.0008164445393147213,0.0007297825824421744
210.5,-0.0005224897290473791,0.00041404506454866853,0.0003460050619684053
211.0,-0.00020512566249398763,0.00073140913110206,0.0006782991134235315
211.5,-0.0004895779181437476,0.00044695687545230004,0.0004057409680992903
212.0,-7.779309552176531e-05,0.0008587416980742823,0.0008269415180324696
212.5,-0.0004531398691011951,0.0004833949244948525,0.00045900162280343557
213.0,-0.0005230114264414984,0.0004135233671545492,0.00039492015709726753
213.5,-0.00039387288565209216,0.0005426619079439555,0.0005285566352301406
214.0,-0.00053930846991859,0.00039722632367745765,0.0003865934322516756
214.5,-0.0005339542462000776,0.00040258054739597006,0.00039461166228139905
215.0,-0.000697542148724732,0.00023899264487131568,0.00023305492032212787
215.5,-0.0004529017369640645,0.00048363305663198314,0.00047923441254837446
216.0,-0.00028972442712174796,0.0006468103664742997,0.00064357074780814
216.5,9.514802728183718e-05,0.001031682820877885,0.0010293106538921842
217.0,0.00046172033928002046,0.0013982551328760682,0.0013965282101027407
217.5,0.0005563678914991697,0.0014929026850952175,0.0014916527804832574
218.0,0.0004666105493497399,0.0014031453429457876,0.0014022459341737777
218.5,0.0007157437842819273,0.001652278577877975,0.0016516351295718442
219.0,0.000227395852204832,0.0011639306458008797,0.0011634729820670163
219.5,0.0004072957726866312,0.0013438305662826788,0.0013435069311719017
220.0,0.0002964626242229844,0.001232997417819032,0.0012327698865661526
