wavelength,absorbance,absorbance_bk,residual_3gauss
117.0,1.0882537531155871,1.0899892009659293,-0.004842334123323244
117.5,1.0874041798886251,1.0891396277389673,0.0063749029441371174
118.0,1.076632970061813,1.078368417912155,0.008352452724912363
118.5,1.067887000487727,1.0696224483380692,0.013008150572614285
119.0,1.0525325203770513,1.0542679682273934,0.011677408309037851
119.5,1.0441650781041043,1.0459005259544465,0.01792301915443617
120.0,1.0297851900738957,1.0315206379242379,0.018710640660130284
120.5,1.0162479817394892,1.0179834295898313,0.02085817016826208
121.0,0.9959876335662547,0.9977230814165969,0.016759828459235515
121.5,0.9796473375522762,0.9813827854026184,0.017015639042454067
122.0,0.9547386825711773,0.9564741304215195,0.009090203081079551
122.5,0.9403888525121389,0.9421243003624811,0.012059136834686512
123.0,0.9163753519869043,0.9181107998372465,0.005642872258032505
123.5,0.8924369419467011,0.8941723897970433,-0.0004835057969834189
124.0,0.8703138619500448,0.872049309800387,-0.004651309921624769
124.5,0.8483685565579598,0.850104004408302,-0.008578960220080534
125.0,0.8240589368369026,0.8257943846872448,-0.01490029804306825
125.5,0.8037356296295864,0.8054710774799286,-0.017369007259271152
126.0,0.7820444253435099,0.7837798731938521,-0.021457867030148514
126.5,0.7634326216412743,0.7651680694916165,-0.022854048743827793
127.0,0.7443705979410944,0.7461060457914366,-0.025239005758100896
127.5,0.7283497857279874,0.7300852335783296,-0.02529164780069859
128.0,0.7130903877177397,0.7148258355680819,-0.02548127901852626
128.5,0.7012143485900206,0.7029497964403628,-0.023394608708649844
129.0,0.6902589169016561,0.6919943647519983,-0.02172129416223978
129.5,0.6816588943136703,0.6833943421640125,-0.019269716684744087
130.0,0.6752658439030521,0.6770012917533943,-0.016444528501716182
130.5,0.6710880140684531,0.6728234619187953,-0.01350205285972328
131.0,0.6694945989924816,0.6712300468428238,-0.010339803777661194
131.5,0.6704042076310117,0.6721396554813539,-0.007300209839688043
132.0,0.6732389711300437,0.6749744189803859,-0.005207157349672142
132.5,0.6791075511866216,0.6808429990369638,-0.003172242056202257
133.0,0.6880464209074116,0.6897818687577538,-0.0013416294488719505
133.5,0.6996074248627993,0.7013428727131414,-0.00029591520692973106
134.0,0.7145972431301899,0.7163326909805321,0.0007021154749161651
134.5,0.7325155820354432,0.7342510298857854,0.0011580150735799322
135.0,0.7523047871408781,0.7540402349912203,0.00010645422267341331
135.5,0.776090225500125,0.7778256733504672,-0.00013918427240056097
136.0,0.802803147692407,0.8045385955427492,-0.000357488529538208
136.5,0.8322403424715774,0.8339757903219196,-0.0003564284429070641
137.0,0.8653989093752806,0.8671343572256228,0.0013601627579967746
137.5,0.8998236227434827,0.9015590705938249,0.0029339958135597977
138.0,0.93647581123994,0.9382112590902821,0.00601024272651729
138.2,0.9517284402744083,0.9534638881247505,0.007796605441993787
138.4,0.9656823399130294,0.9674177877633716,0.008339285322283008
138.6,0.9794479588646515,0.9811834067149937,0.008800648337948691
138.8,0.9941915207177551,0.9959269685680973,0.010399625567635962
139.0,1.0079175726353795,1.0096530204857217,0.011193985291515052
139.2,1.0202205070859351,1.0219559549362773,0.010831565078456062
139.4,1.0331334454228491,1.0348688932731913,0.011398854589894203
139.6,1.0447459986652523,1.0464814465155945,0.011038446544546554
139.8,1.05559422122468,1.0573296690750222,0.010338673849293656
140.0,1.0654034519417956,1.0671388997921378,0.009076129672966449
140.2,1.0751020489984708,1.076837496848813,0.008229079575009068
140.4,1.084040204159922,1.0857756520102642,0.007195953803881494
140.6,1.0915076488803896,1.0932430967307318,0.0053127350496318115
140.8,1.0980239422451348,1.099759390095477,0.003142934440673928
141.0,1.10405460596372,1.1057900538140621,0.0011934238571369438
141.2,1.1099490634581515,1.1116845113084937,-0.0001479155259478393
141.4,1.1142957317998947,1.116031179650237,-0.002257376858453952
141.6,1.1184582009010775,1.1201936487514197,-0.0037395061861305035
141.8,1.1232218368856377,1.12495728473598,-0.0037807363177226883
142.0,1.1255777027905052,1.1273131506408474,-0.005365680217244817
142.2,1.1288989439958164,1.1306343918461585,-0.005100934041085026
142.4,1.1311275298899732,1.1328629777403154,-0.005028496003269156
142.6,1.1329276849551333,1.1346631328054755,-0.004472465773275536
142.8,1.1335553689192155,1.1352908167695577,-0.004169662880506131
143.0,1.1346254088775367,1.136360856727879,-0.002502559600729981
143.2,1.1341389550556913,1.1358744029060335,-0.001471855315931192
143.4,1.1333523978657856,1.1350878457161278,0.00017244633263668874
143.6,1.1309312629035524,1.1326667107538946,0.00108497484312986
143.8,1.1287249129785648,1.130460360828907,0.003099774243504827
144.0,1.1236526140576364,1.1253880619079786,0.0031164853359917366
144.2,1.1189434947005115,1.1206789425508537,0.004340457979342682
144.4,1.1132591337721716,1.1149945816225137,0.005405527411607158
144.6,1.1068403089457075,1.1085757567960497,0.006520985955422498
144.8,1.0997993822833052,1.1015348301336474,0.00776422483117134
145.0,1.091253711716632,1.0929891595669743,0.008214432951604511
145.2,1.0824848465117607,1.0842202943621029,0.009112108459588208
145.4,1.0730144422775119,1.074749890127854,0.00993531588304064
145.6,1.0631560875658137,1.0648915354161559,0.010951877929164855
145.8,1.0530183525724268,1.054753800422769,0.01222280908272122
146.0,1.0411755642360436,1.0429110120863858,0.012273491675132808
146.2,1.0290526474899724,1.0307880953403146,0.012478930294260282
146.4,1.0163963296033036,1.0181317774536458,0.012535377373015688
146.6,1.0027446434032627,1.004480091253605,0.011930261478766524
146.8,0.9888127919811049,0.9905482398314471,0.011328476512149743
147.0,0.9733405649898504,0.9750760128401926,0.009420217456325486
147.2,0.9585879838983404,0.9603234317486826,0.008417035553832108
147.4,0.9426756027764768,0.944411050626819,0.0063925350339052445
147.6,0.9266916817419144,0.9284271295922566,0.004389924161029901
147.8,0.9110463854962736,0.9127818333466158,0.0027765688234804298
148.0,0.8948605143836273,0.8965959622339695,0.0006330520929911376
148.2,0.8787848259772079,0.88052027382755,-0.0014272059756377242
148.4,0.8638572712747078,0.86559271912505,-0.002400447642877057
148.6,0.8494003660479481,0.8511358138982903,-0.0029949783824093634
148.8,0.8358646990465162,0.8376001468968584,-0.0027874703077588325
149.0,0.8220103373699817,0.8237457852203239,-0.003041409979793297
149.2,0.8093870823977325,0.8111225302480747,-0.0022267388730816684
149.4,0.7959247670484288,0.797660214898771,-0.0024294968653252313
149.6,0.7827162067156905,0.7844516545660327,-0.002568856984324852
149.8,0.7696820823596365,0.7714175302099787,-0.0027322729425093284
150.0,0.7567753846147045,0.7585108324650467,-0.002971110028756052
150.5,0.7253227320133101,0.7270581798636523,-0.0036375663622848498
151.0,0.6942306605963643,0.6959661084467065,-0.005125488141820234
151.5,0.6635853822057253,0.6653208300560675,-0.0071545080401138605
152.0,0.6344479445859802,0.6361833924363224,-0.00838511482854487
152.5,0.6075872278383809,0.6093226756887231,-0.007719982642692469
153.0,0.5823516282162035,0.5840870760665456,-0.005468718418328633
153.5,0.5581209542416283,0.5598564020919705,-0.0019314675580228702
154.0,0.5324378816062454,0.5341733294565876,0.0007008488103242838
154.5,0.505368557162063,0.5071040050124052,0.0026817124279000515
155.0,0.4771878114032632,0.47892325925360546,0.00437687310136714
155.5,0.44822377922926754,0.4499592270796098,0.006100713733856733
156.0,0.4174840688561927,0.41921951670653496,0.0067434055670445026
156.5,0.3859060676635651,0.38764151551390735,0.007030757554641109
157.0,0.35400012168852235,0.3557355695388646,0.007184090314102609
157.5,0.3220320623516252,0.3237675102019674,0.007124664201715036
158.0,0.29009970588773426,0.2918351537380765,0.006575033659396878
158.5,0.2573087157673958,0.259044163617738,0.004260399757309352
159.0,0.22529401034059032,0.22702945819093256,0.0014539905466350589
159.5,0.19360706509675088,0.19534251294709312,-0.0026149763366161427
160.0,0.16369548516869795,0.1654309330190402,-0.00676567581245488
160.5,0.13540647661724411,0.13714192446758636,-0.01135151610442156
161.0,0.11120427496762458,0.11293972281796683,-0.014037560881010547
161.5,0.08991378645722149,0.09164923430756373,-0.0160569553843114
162.0,0.07093481170649489,0.07267025955683713,-0.018001264071328058
162.5,0.056151155081864725,0.05788660293220696,-0.01791942183212447
163.0,0.04361281385765658,0.04534826170799881,-0.01764597494193154
163.5,0.03359013232885555,0.035325580179197784,-0.016758589862699888
164.0,0.025779675293335295,0.02751512314367753,-0.015384038177267391
164.5,0.019707250466199373,0.02144269831654161,-0.013806367016126905
165.0,0.014875653883860668,0.016611101734202903,-0.012329040254625154
165.5,0.011077535729860087,0.012812983580202324,-0.010970245942716218
166.0,0.008434441335217825,0.010169889185560062,-0.009430128727013171
166.5,0.006459764929020176,0.008195212779362412,-0.008032211822287715
167.0,0.0047922095841508834,0.0065276574344931195,-0.006992562531131499
167.5,0.003583708278278298,0.005319156128620535,-0.006032991835556667
168.0,0.001982790907811852,0.0037182387581540886,-0.005897601399148786
168.5,0.0014319982651680324,0.003167446115510269,-0.005054388969304805
169.0,0.0006852754034941679,0.0024207232538364046,-0.004676275505909336
169.5,0.00022112956830842352,0.00195657741865066,-0.004226027925005394
170.0,-0.00014231727374936995,0.0015931305765928667,-0.0038391584980314104
170.5,-0.0005414662505108614,0.001193981599831375,-0.0036160453095599888
171.0,-0.0011878214192155888,0.0005476264311266477,-0.003740635511086212
171.5,-0.001001117746399533,0.0007343301039427035,-0.0031119042149179593
172.0,-0.0014756985224481484,0.00025974932789408806,-0.003208801786988945
172.5,-0.0014361278790425275,0.000299319971299709,-0.0028446800957412878
173.0,-0.0016859468787613972,4.9500971580839284e-05,-0.002815092681578172
173.5,-0.0016984431085855659,3.700474175667061e-05,-0.0025878139299670365
174.0,-0.0017354478503422365,0.0,-0.002421060734875711
174.5,-0.001712236968061335,2.3210882280901403e-05,-0.0022279605902089817
175.0,-0.0015571886488588863,0.00017825920148335024,-0.0019358882026111687
175.5,-0.0014979517803065672,0.00023749607003566934,-0.0017723961897475595
176.0,-0.001148442515152374,0.0005870053351898624,-0.0013520328489762727
176.5,-0.0007563769323006895,0.0009790709180415471,-0.0009237342472073464
177.0,-0.0007317416432294902,0.0010037062071127463,-0.0008991756384032026
177.5,-0.0004581608366003058,0.0012772870137419308,-0.000664027410023542
178.0,-0.00044810610640315,0.0012873417439390866,-0.0007330518505452603
178.5,-5.14619534222424e-05,0.001683985896919994,-0.00045854652496931324
179.0,-0.00010149842145997348,0.001633949428882263,-0.0006761813377898474
179.5,0.0006919776893107315,0.002427425539652968,-9.799889594382235e-05
180.0,0.0007608573734535332,0.0024963052237957696,-0.0002940144246793468
180.5,0.0009725562551219965,0.002708004105464233,-0.0003982116167776618
181.0,0.0022519631322455258,0.003987410982587762,0.000513589953996728
181.5,0.0030027310303582413,0.004738178880700478,0.0008452096566692363
182.0,0.003286290269321011,0.005021738119663248,0.0006592937362668236
182.5,0.004020378000635419,0.0057558258509776555,0.0008760009761451786
183.0,0.0043655533830741005,0.006101001233416337,0.0006596447573591121
183.5,0.004890067094815532,0.006625514945157769,0.0005836497061200959
184.0,0.005290973845365543,0.007026421695707779,0.00035170181473857635
184.5,0.006043556597818825,0.007779004448161061,0.0004471524747143331
185.0,0.006310185463230865,0.008045633313573101,4.179338049609821e-05
185.5,0.007315630254196339,0.009051078104538576,0.00037101824295306986
186.0,0.007399879532711101,0.009135327383053338,-0.00021357539890734696
186.5,0.008450995822023678,0.010186443672365915,0.0001883897029225038
187.0,0.008648432285250002,0.010383880135592239,-0.00023094599562126228
187.5,0.008951016689721153,0.01068646454006339,-0.0005000698872344306
188.0,0.00969463034902974,0.011430078199371977,-0.0002708198388952192
188.5,0.01030985578162809,0.012045303631970327,-0.00010114681642283546
189.0,0.010866857688199326,0.012602305538541563,8.936647734428087e-05
189.5,0.01066817447916588,0.012403622329508117,-0.0003880720392453775
190.0,0.011102903180914937,0.012838351031257174,-0.0001375987135002494
190.5,0.010910255454118776,0.012645703304461013,-0.0004153917129323323
191.0,0.011076020964296888,0.012811468814639125,-0.0002333813814828778
191.5,0.010941724165157842,0.012677172015500079,-0.00025017786317189407
192.0,0.010868504265323192,0.012603952115665428,-0.00010718155899404336
192.5,0.011046924166763044,0.012782372017105281,0.0003813288985414689
193.0,0.01053944795006393,0.012274895800406168,0.00027086515281748297
193.5,0.010714331592687688,0.012449779443029925,0.0009208885105807824
194.0,0.01016733429825528,0.011902782148597517,0.000916853300772822
194.5,0.009059671335926415,0.010795119186268652,0.0004085377953265464
195.0,0.008226848215693206,0.009962296066035443,0.00021928334630606783
195.5,0.007242503240438429,0.008977951090780666,-8.975100813134011e-05
196.0,0.006258676469973436,0.007994124320315673,-0.00037891960414016684
196.5,0.005362875467780308,0.007098323318122544,-0.0005726539302326524
197.0,0.004910010701457551,0.006645458551799788,-0.000327200979485312
197.5,0.003710571801804599,0.0054460196521468355,-0.0008421763022965385
198.0,0.0034167443803450807,0.005152192230687317,-0.0004742395735675038
198.5,0.00267672246280146,0.004412170313143697,-0.0005826411818221234
199.0,0.002015409952345081,0.0037508578026873175,-0.0006484461878847941
199.5,0.0011146473142104863,0.0028500951645527225,-0.0009942958047639244
200.0,0.0012661945524484602,0.0030016424027906967,-0.0003314688267673964
200.5,0.0009029667425605712,0.002638414592902808,-0.00022873809866624925
201.0,0.0006501011702707425,0.002385549020612979,-6.143294610539514e-05
201.5,0.0009577990796602233,0.00269324693000246,0.0006212460883971878
202.0,7.82204406593856e-05,0.0018136682910016222,7.294918792154301e-05
202.5,0.00011976954528333784,0.0018552173956255743,0.0004042835852977192
203.0,0.0003391333565404975,0.002074581206882734,0.0008746749344991664
203.5,0.0002520353010412276,0.001987483151383464,0.0010029536827661598
204.0,0.0001534560100780792,0.0018889038604203157,0.001087423550880119
204.5,8.504604653863793e-05,0.0018204938968808745,0.0011731410571232867
205.0,0.00023238278640921504,0.0019678306367514513,0.0014490605193643365
205.5,-6.309511597507747e-05,0.001672352734367159,0.0012598787610767761
206.0,5.486926642323201e-05,0.0017903171167654684,0.0014649240213280969
206.5,0.0001440327539197626,0.0018794806042619992,0.0016247897414909704
207.0,0.00026979710841437644,0.002005244958756613,0.001807449900261598
207.5,0.000331725765375431,0.0020671736157176677,0.0019147615803295943
208.0,0.0003005905000234483,0.002036038350365685,0.001919510238069095
208.5,0.00034968835308759575,0.0020851362034298325,0.0019967352145660476
209.0,0.0006811493657951195,0.0024165972161373558,0.002350053398217193
209.5,0.0006208408510484634,0.0023562887013906996,0.002306584385388799
210.0,0.0005279992516736985,0.002263447102015935,0.0022266061380885787
210.5,0.00027213741349493094,0.0020075852638371675,0.0019804872758816972
211.0,0.0006483564039659623,0.002383804254308199,0.0023640238064160973
211.5,0.00047864386425830306,0.0022140917146005394,0.0021997613001145827
212.0,0.000942421151499112,0.0026778690018413485,0.002667564091523882
212.5,0.0005951740508074017,0.002330621901149638,0.0023232658757449368
213.0,0.0009822249457110308,0.0027176727960532675,0.002712459391323461
213.5,0.0005069066221518616,0.002242354472494098,0.0022386853331607184
214.0,0.0004940818462381911,0.0022295296965804275,0.0022269647246296377
214.5,0.0007821968769653159,0.002517644727307552,0.0025158630804843745
215.0,0.0007857818748489833,0.00252122972519122,0.0025199995404412492
215.5,0.000872725077623412,0.0026081729279656485,0.0026073280861040092
216.0,0.0013218823824955883,0.003057330232837825,0.003056752725333563
216.5,0.0010977866097393605,0.002833234460081597,0.002832841152827057
217.0,0.0017844842608660957,0.0035199321112083324,0.0035196649146764826
217.5,0.0016031879141632005,0.0033386357645054368,0.003338454409891334
218.0,0.0017852457351143515,0.003520693585456588,0.003520570370349956
218.5,0.0016362069381503242,0.0033716547884925607,0.0033715707935762468
219.0,0.0016641942940980295,0.0033996421444402658,0.0033995845363132544
219.5,0.0017552783449565647,0.003490726195298801,0.0034906863222795683
220.0,0.001887513301713844,0.0036229611520560805,0.0036229332126231236
