wavelength,absorbance,absorbance_bk,residual_3gauss
117.0,0.7150664258874865,0.7220835709099793,-0.003505167371603224
117.5,0.7125535726992076,0.7195707177217004,-0.0010245515395080895
118.0,0.7077376550095996,0.7147548000320925,8.903789126835093e-05
118.5,0.6992791825308776,0.7062963275533705,-0.0015323521416434893
119.0,0.693010622881973,0.7000277679044659,-8.946635766859945e-05
119.5,0.6869618873366643,0.6939790323591571,0.002409559842719511
120.0,0.6762875826035335,0.6833047276260263,0.0010763419013818387
120.5,0.6688704307665151,0.6758875757890079,0.0037455251994866767
121.0,0.6565720702873344,0.6635892153098273,0.0022254106993934153
121.5,0.6445016837423163,0.6515188287648092,0.001566370633478975
122.0,0.63408886598859,0.6411060110110829,0.0031334681853589785
122.5,0.6207947439199032,0.627811888942396,0.0023172957109549586
123.0,0.6070158911595095,0.6140330361820023,0.0014375821112183607
123.5,0.5919806418707767,0.5989977868932695,-0.00036081459854553355
124.0,0.5785983963312944,0.5856155413537872,-0.0002589197608146021
124.5,0.5628901236105496,0.5699072686330424,-0.002333431365027394
125.0,0.5477816875829077,0.5547988326054005,-0.003763630962467568
125.5,0.53377565210679,0.5407927971292829,-0.0041597253230925
126.0,0.5205602019628233,0.5275773469853161,-0.0039539414471522205
126.5,0.5082548865957096,0.5152720316182025,-0.003154622148354158
127.0,0.49511314679388857,0.5021302918163814,-0.0036433126982031716
127.5,0.4841499356483415,0.4911670806708343,-0.0025464760336291747
128.0,0.4742294484719076,0.4812465934944004,-0.0011467713313558225
128.5,0.4649566601850734,0.4719738052075662,9.84947069482267e-06
129.0,0.4566390425906443,0.4636561876131371,0.0010776395117693682
129.5,0.449296694406912,0.4563138394294048,0.0019234111565948897
130.0,0.4435157002244541,0.45053284524694687,0.002982576947712645
130.5,0.4385343188152424,0.4455514638377352,0.003348473470133617
131.0,0.43512561628438307,0.44214276130687585,0.003658557067635737
131.5,0.4334694454840312,0.440486590506524,0.003970321080682904
132.0,0.4331952199771296,0.4402123649996224,0.0038083039012615783
132.5,0.4340381680369964,0.4410553130594892,0.002824766276451507
133.0,0.4369363505880071,0.4439534956104999,0.001901187323032294
133.5,0.4417577971102793,0.4487749421327721,0.0008797738144963319
134.0,0.4487601493174455,0.4557772943399383,2.7192251922603106e-05
134.5,0.45680191615641863,0.4638190611789114,-0.0017505678701121852
135.0,0.4666434620090176,0.47366060703151036,-0.0036042800228864857
135.5,0.47870013445291854,0.4857172794754113,-0.00498630984900017
136.0,0.4930214990731078,0.5000386440956006,-0.005670408505048075
136.5,0.5095057100300584,0.5165228550525512,-0.005537607300247327
137.0,0.5281357501624286,0.5351528951849215,-0.00434161287023116
137.5,0.5482235735806117,0.5552407186031045,-0.002467760643365291
138.0,0.5690885506582494,0.5761056956807422,-0.0002591671917338001
138.2,0.5775061978954389,0.5845233429179317,0.0006532852956414592
138.4,0.5856076107938031,0.5926247558162959,0.0012615769512160924
138.6,0.5941262900334418,0.6011434350559346,0.002324171905968453
138.8,0.6019692936031084,0.6089864386256012,0.0027734618158352653
139.0,0.6091946961849548,0.6162118412074477,0.0026931292077011504
139.2,0.6161348782757293,0.6231520232982222,0.0024413362604950306
139.4,0.6240325140794805,0.6310496591019733,0.003286608453347939
139.6,0.630561896745294,0.6375790417677868,0.0029290520844007517
139.8,0.637618959760162,0.6446361047826549,0.003290264931996467
140.0,0.643292351682614,0.6503094967051068,0.0024842977354627704
140.2,0.6495191446227565,0.6565362896452493,0.0024732474208630784
140.4,0.6547104458215881,0.661727590844081,0.0016927519709157846
140.6,0.659887965276989,0.6669051102994819,0.0011884404577106045
140.8,0.6647901279942401,0.6718072730167329,0.0007219274107217455
141.0,0.6693252272457187,0.6763423722682116,0.00022384852143020328
141.2,0.6728487478023562,0.679865892824849,-0.0009289327155228566
141.4,0.6767849688566747,0.6838021138791676,-0.0012918370478969265
141.6,0.6798276939754707,0.6868448389979636,-0.002151952184645367
141.8,0.6830163597807732,0.6900335048032661,-0.002452033796311426
142.0,0.6853455186568854,0.6923626636793783,-0.003181128789540244
142.2,0.6884909839099816,0.6955081289324745,-0.0026485317038100753
142.4,0.6906744346578214,0.6976915796803143,-0.002619276212603716
142.6,0.6922274215752885,0.6992445665977813,-0.0027502198495086283
142.8,0.6942381309811886,0.7012552760036814,-0.001943363707891832
143.0,0.6949097084532108,0.7019268534757036,-0.0019876051510764325
143.2,0.695308305133233,0.7023254501557259,-0.001810759586926336
143.4,0.695503484239299,0.7025206292617918,-0.0013392130019818094
143.6,0.6954031358895624,0.7024202809120552,-0.0006630563607724627
143.8,0.694929225284002,0.7019463703064949,0.0001396239600773841
144.0,0.6936280217021633,0.7006451667246562,0.0006129479350756029
144.2,0.6915811849391116,0.6985983299616044,0.0008343132282395693
144.4,0.6885949145909249,0.6956120596134178,0.0006035422464477636
144.6,0.6855799346235392,0.692597079646032,0.0008228780325473251
144.8,0.6821658405092064,0.6891829855316992,0.0011113569240318588
145.0,0.6776063969517542,0.684623541974247,0.0007101465772040294
145.2,0.673595362432544,0.6806125074550369,0.0012984260898317723
145.4,0.6684058653719978,0.6754230103944906,0.0011328334245015448
145.6,0.6638332023017851,0.670850347324278,0.001990350824128906
145.8,0.6580557942507576,0.6650729392732504,0.0020293645900689716
146.0,0.6520693505288737,0.6590864955513666,0.0022239484268415932
146.2,0.6454644440323145,0.6524815890548074,0.002141574330342122
146.4,0.6387028832370906,0.6457200282595834,0.002219635856163582
146.6,0.6313966043246667,0.6384137493471596,0.002044506679411917
146.8,0.6236076119370575,0.6306247569595503,0.00165166219424695
147.0,0.6154149305292882,0.622432075551781,0.0010928251413394596
147.2,0.606989683868072,0.6140068288905648,0.0005112515915486338
147.4,0.5986419349291686,0.6056590799516615,0.00018878806992972397
147.6,0.5894294638165153,0.5964466088390081,-0.0008451242755384003
147.8,0.5806962871719102,0.5877134321944031,-0.0012746969585276657
148.0,0.5714744468908389,0.5784915919133318,-0.002095767283917249
148.2,0.5625964551036415,0.5696136001261344,-0.002503112797171192
148.4,0.5541368247414575,0.5611539697639504,-0.0024486803752059583
148.6,0.5451129222185817,0.5521300672410745,-0.0029404962488814856
148.8,0.536784133139123,0.5438012781616158,-0.002743269018928185
149.0,0.5289205783199592,0.535937723342452,-0.0021094514518287255
149.2,0.5211475514951961,0.5281646965176889,-0.0014345928325055768
149.4,0.5136586285651258,0.5206757735876186,-0.0005440351658970721
149.6,0.506301214049533,0.5133183590720258,0.0003928093198269922
149.8,0.49835393569124914,0.5053710807137419,0.0006400073032986064
150.0,0.49096801164336235,0.49798515666585513,0.0013366017189762602
150.5,0.4714338369083924,0.4784509819308852,0.0014616599874187064
151.0,0.4523921898089091,0.4594093348314019,0.0012453504700518092
151.5,0.4336784701385951,0.4406956151610879,0.0005431294756864657
152.0,0.4154024848462336,0.4224196298687264,-0.0004210499596272732
152.5,0.3984291407621383,0.4054462857846311,-0.0005887815099151483
153.0,0.38270924297756986,0.38972638800006265,0.00024164705982138157
153.5,0.36667686189078535,0.37369400691327814,0.0007852473476302468
154.0,0.35010673770528167,0.35712388272777446,0.0010974151197564175
154.5,0.3326330176023347,0.3396501626248275,0.0010623284271272238
155.0,0.31387215095648985,0.32088929597898264,0.0004885193875848737
155.5,0.29461962997227337,0.30163677499476615,0.0002840780708117663
156.0,0.27403397728518286,0.28105112230767565,-0.0003729546451607946
156.5,0.25297513086570145,0.25999227588819424,-0.0007005914499518262
157.0,0.23164036247669745,0.23865750749919024,-0.000671948360574881
157.5,0.21052077583692608,0.21753792085941887,-4.5136739946216586e-05
158.0,0.18899874059046537,0.19601588561295816,0.0002545921090099379
158.5,0.16744124569326327,0.17445839071575606,0.0002530011982730118
159.0,0.1463809315678762,0.153398076590369,0.00013431902783572758
159.5,0.1257704230806134,0.13278756810310618,-0.00047911950085424704
160.0,0.10638102324553948,0.11339816826803227,-0.0011063496329393602
160.5,0.08898959056145303,0.09600673558394582,-0.0012043003977095096
161.0,0.07333335853671376,0.08035050355920655,-0.001202599972249252
161.5,0.05888005572128425,0.06589720074377704,-0.001729510965556541
162.0,0.047716603074108896,0.054733748096601684,-0.0007252186280394257
162.5,0.03722542464422027,0.044242569666713055,-0.0007723906208993575
163.0,0.02952528845744985,0.03654243347994264,0.00033429134123558885
163.5,0.023209323131935175,0.030226468154427963,0.0013137765613614114
164.0,0.018253310077239657,0.02527045509973245,0.00229399623474175
164.5,0.01396231164000848,0.02097945666250127,0.002746187903714399
165.0,0.010501711407406132,0.01751885642989892,0.003005165027231362
165.5,0.008125817503040155,0.015142962525532945,0.003489233680781318
166.0,0.006592005861542028,0.013609150884034818,0.004107958179153295
166.5,0.004874219173598753,0.011891364196091544,0.003971543375449447
167.0,0.0036093264621798464,0.010626471484672636,0.003835091440820897
167.5,0.0026204157509373558,0.009637560773430146,0.0036214377189613886
168.0,0.002285424032581315,0.009302569055074105,0.0037905530183974644
168.5,0.001614889369514045,0.008632034392006835,0.0034188887359230275
169.0,0.0009772790064000128,0.007994424028892803,0.0029267583261856998
169.5,-6.417636718213163e-05,0.006952968655310658,0.0019173950703199492
170.0,-0.0001801902287970258,0.006836954793695764,0.0017504252469081102
170.5,-6.392943014309516e-05,0.006953215592349694,0.0017553574660640605
171.0,-0.00015642717419563467,0.006860717848297155,0.0015079089298679202
171.5,-0.00041328286134899414,0.006603862161143796,0.0010647568050425734
172.0,-0.0004721934093962348,0.006544951613096555,0.0007971752798434538
172.5,-0.0006758516925816921,0.006341293329911097,0.0003690488277875567
173.0,-0.0009069285898010456,0.006110216432691744,-9.74180075034416e-05
173.5,-0.0010359187175568484,0.005981226304935941,-0.0004690344689874783
174.0,-0.001565014765259185,0.0054521302572336046,-0.001245127883406764
174.5,-0.0016693971915068705,0.005347747830985919,-0.0015985715780781626
175.0,-0.001293292283263591,0.0057238527392291984,-0.0014716615237649966
175.5,-0.0014932547771602123,0.005523890245332577,-0.0019192757713293873
176.0,-0.0014857936291469336,0.005531351393345856,-0.002156418359838542
176.5,-0.0012157488318526519,0.005801396190640138,-0.0021265430799425195
177.0,-0.0014429922102130672,0.005574152812279722,-0.0025882210034525446
177.5,-0.0016369898642433671,0.005380155158249422,-0.0030096830906937615
178.0,-0.001142254768906304,0.005874890253586486,-0.0027342619835900583
178.5,-0.0009883451975095353,0.006028799824983254,-0.002790385641925454
179.0,-0.0003217426384280724,0.006695402384064717,-0.002323454450995273
179.5,-0.0005817365314276622,0.006435408491065127,-0.00277172774328092
180.0,-4.739729685816457e-05,0.006969747725634625,-0.002413300264072861
180.5,-6.817866792716144e-05,0.006948966354565628,-0.0025967089393697344
181.0,0.0001744846754288268,0.007191629697921616,-0.0025025354847272446
181.5,0.0005569573335041724,0.007574102355996962,-0.0022536313596745045
182.0,0.000102168809867756,0.0071193138323605454,-0.002826357284339812
182.5,0.0005679978391643459,0.007585142861657136,-0.0024622038195365493
183.0,0.001087149831739432,0.008104294854232221,-0.0020279184492288573
183.5,0.001375603130266928,0.008392748152759718,-0.0018070633515603722
184.0,0.0019411415751404448,0.008958286597633234,-0.0012914862667161558
184.5,0.0023954602959498634,0.009412605318442653,-0.0008692174687789534
185.0,0.002265307864485152,0.009282452886977943,-0.001013329647410563
185.5,0.002398660951959617,0.009415805974452407,-0.0008757645130217928
186.0,0.0028822855834291067,0.009899430605921897,-0.000369772002761325
186.5,0.004023894821382761,0.011041039843875552,0.0008122477611990832
187.0,0.0036189244073941778,0.010636069429886968,0.0004655212940099709
187.5,0.0040975948402461795,0.011114739862738969,0.0010199658216393116
188.0,0.004170456652277883,0.011187601674770672,0.0011857373480243724
188.5,0.004598274315919465,0.011615419338412255,0.0017231181178926514
189.0,0.005952381668870491,0.012969526691363281,0.0032028763237577987
189.5,0.005967554912238462,0.012984699934731251,0.003359144062265753
190.0,0.005721116485070593,0.012738261507563383,0.0032685267858912764
190.5,0.006190685997682236,0.013207831020175025,0.003907860367654644
191.0,0.00522417537727309,0.01224132039976588,0.0031242128613871087
191.5,0.005701711440667688,0.012718856463160478,0.0037968140963294227
192.0,0.005497495769453381,0.01251464079194617,0.003798922901385454
192.5,0.0053132255366901415,0.012330370559182931,0.0038312555255776495
193.0,0.004969673633225315,0.011986818655718105,0.0037135735186692113
193.5,0.004984211426842887,0.012001356449335678,0.003962214320901346
194.0,0.004248667319216476,0.011265812341709265,0.0034679576435205656
194.5,0.003554171495310458,0.010571316517803247,0.00302087795358591
195.0,0.0023093936262464127,0.009326538648739202,0.0020285897461454145
195.5,0.0017844027750645191,0.008801547797557308,0.0017601147795149553
196.0,0.0006072531360885109,0.0076243981585813,0.0008424748358102996
196.5,-0.00022571266444099128,0.006791432358051798,0.00027100167177607215
197.0,-0.0008148298328583514,0.006202315189634438,-5.562302248878284e-05
197.5,-0.0016819870977753427,0.005335157924717447,-0.0006602375658363501
198.0,-0.002203312674779401,0.004813832347713388,-0.0009198810204504452
198.5,-0.002864254804053294,0.004152890218439495,-0.0013208690496212877
199.0,-0.0037994923108524144,0.003217652711640375,-0.0019987003742280916
199.5,-0.003928953314569572,0.003088191707923217,-0.0018740719710040364
200.0,-0.004456308350224769,0.0025608366722680203,-0.0021513692858405997
200.5,-0.004987304615723661,0.0020298404067691286,-0.0024369981771964503
201.0,-0.0056889358299771695,0.00132820919251562,-0.0028985530690626244
201.5,-0.005552226092157747,0.0014649189303350425,-0.002527599691191167
202.0,-0.0059018507478582095,0.00111529427463458,-0.002649295393377523
202.5,-0.005857967998829452,0.0011591770236633377,-0.0023842207456832003
203.0,-0.006097994547444071,0.0009191504750487188,-0.0024101556857935866
203.5,-0.006706569398336687,0.00031057562415610224,-0.0028120443015433195
204.0,-0.006534932553624646,0.0004822124688681432,-0.0024413749468543966
204.5,-0.006115942195188883,0.0009012028273039062,-0.0018311992434099015
205.0,-0.006513537999642038,0.0005036070228507513,-0.0020455975702792163
205.5,-0.006855949555053404,0.0001611954674393852,-0.002212889965631825
206.0,-0.006772349593132495,0.0002447954293602946,-0.001962292108498457
206.5,-0.006532516787379762,0.000484628235113028,-0.001563581085211675
207.0,-0.00670008039385985,0.0003170646286329397,-0.0015803431718061183
207.5,-0.006234796648109721,0.0007823483743830684,-0.0009722535016006204
208.0,-0.006435419033105506,0.0005817259893872839,-0.0010379496902078594
208.5,-0.00663158236086716,0.00038556266162562917,-0.0011069193199488966
209.0,-0.006430532558063067,0.0005866124644297224,-0.0007862331359087178
209.5,-0.006863672514542668,0.00015347250795012118,-0.0011070942772421417
210.0,-0.006374063192054348,0.0006430818304384413,-0.0005123427087394736
210.5,-0.006440250156700272,0.0005768948657925172,-0.00048028498722299745
211.0,-0.00675239652396134,0.0002647484985314492,-0.0007008303260249694
211.5,-0.006853602600191727,0.0001635424223010622,-0.0007168132193308748
212.0,-0.006586902517315201,0.00043024250517758895,-0.0003709929044813878
212.5,-0.006637915809561451,0.0003792292129313384,-0.00034870759586603075
213.0,-0.0069269382471491775,9.020677534361202e-05,-0.0005699677934515566
213.5,-0.006424304803000424,0.000592840219492366,-4.8215333728401574e-06
214.0,-0.006907116527408271,0.00011002849508451838,-0.00043008334988735774
214.5,-0.006396379692944048,0.0006207653295487413,0.00013352469180759536
215.0,-0.00651470461926388,0.0005024404032289093,6.36724824141874e-05
215.5,-0.006469823344581729,0.0005473216779110605,0.00015290270607804993
216.0,-0.006995175751420483,2.196927107230625e-05,-0.00033195658326619446
216.5,-0.0064360230497739375,0.0005811219727188521,0.0002640934439842631
217.0,-0.0070171450224927896,0.0,-0.0002834757840128299
217.5,-0.006685876737851545,0.0003312682846412446,7.824228536432718e-05
218.0,-0.006947645868857376,6.94991536354132e-05,-0.00015594859151591537
218.5,-0.0069190503419693525,9.809468052343704e-05,-0.00010242555545351094
219.0,-0.006581832826321757,0.00043531219617103274,0.000257278551892406
219.5,-0.006698239739012837,0.0003189052834799526,0.0001611159941234872
220.0,-0.006896768045892026,0.00012037697660076396,-1.9222735420667262e-05
