wavelength,absorbance,absorbance_bk,residual_3gauss
117.0,0.5234162794313558,0.5239596517760602,-0.00033386374646715566
117.5,0.5180177195715209,0.5185610919162252,-0.001556481715472735
118.0,0.5112864785243145,0.5118298508690189,-0.0035478759117761882
118.5,0.5079592802196868,0.5085026525643912,-0.001589983921199245
119.0,0.5039399561013749,0.5044833284460792,0.00019991287575948924
119.5,0.4985652481156973,0.4991086204604016,0.0011349301455113592
120.0,0.4928707103519313,0.4934140826966356,0.0022243976709866997
120.5,0.48562577473798474,0.48616914708268905,0.002208814219818833
121.0,0.4792601826578792,0.4798035550025835,0.00348613881730947
121.5,0.4699232626637572,0.47046663500846153,0.0021708962730453973
122.0,0.46142870381574275,0.46197207616044705,0.002038745533365083
122.5,0.4533244680533113,0.4538678403980156,0.002596155145963508
123.0,0.4419716932556266,0.4425150656003309,0.0001590407416866002
123.5,0.4329067344564244,0.4334501068011287,0.00021451815039907896
124.0,0.422612328873861,0.4231557012185653,-0.000808232608637105
124.5,0.4131666469212828,0.4137100192659871,-0.0008892168161076519
125.0,0.40244517552629094,0.40298854787099525,-0.0022160239461231357
125.5,0.39248105464137,0.3930244269860743,-0.002823732853190153
126.0,0.38383899373095937,0.3843823660756637,-0.0022211697682261167
126.5,0.37394226395782737,0.3744856363025317,-0.003063992494149681
127.0,0.3664061443424389,0.3669495166871432,-0.0018211880736221375
127.5,0.3574558287321945,0.3579992010768988,-0.002356940072638869
128.0,0.3504038144283933,0.3509471867730976,-0.0014528064605972002
128.5,0.34382963010734435,0.34437300245204866,-0.0006273129603523442
129.0,0.3379620721625205,0.3385054445072248,0.0002472418350831229
129.5,0.3326951105637683,0.33323848290847263,0.0009619597632233856
130.0,0.3281271726220717,0.328670544966776,0.0015122239748672217
130.5,0.3246763973954686,0.3252197697401729,0.0022148896603678137
131.0,0.3220434715004695,0.32258684384517383,0.0026733907762067077
131.5,0.3195827363780575,0.3201261087227618,0.002151431454498365
132.0,0.3190116820760905,0.3195550544207948,0.0022853368875305757
132.5,0.3196631704786701,0.3202065428233744,0.002339346013132071
133.0,0.3207578144627502,0.3213011868074545,0.0014811910440029608
133.5,0.323210145910339,0.3237535182550433,0.0005914951297818494
134.0,0.32731741975693407,0.3278607921016384,-4.428460980848703e-05
134.5,0.33218394347191305,0.33272731581661735,-0.0013086142881165164
135.0,0.33881042577753606,0.33935379812224037,-0.002159992379189235
135.5,0.34680854781191983,0.34735192015662414,-0.002916357768965372
136.0,0.3563392250240384,0.3568825973687427,-0.003315476578111376
136.5,0.3673844576148837,0.367927829959588,-0.0032425485505907514
137.0,0.38000326585186606,0.38054663819657036,-0.002474658013669029
137.5,0.3934234491121804,0.3939668214568847,-0.0015904270194621595
138.0,0.4077579546509578,0.40830132699566213,-0.000256149289821761
138.2,0.41403531100145086,0.41457868334615516,0.0007451560523742962
138.4,0.4197300846147524,0.4202734569594567,0.0011450261738679135
138.6,0.4252651614968681,0.4258085338415724,0.0013833300235033263
138.8,0.43085461699116656,0.43139798933587087,0.0016914956157570438
139.0,0.4363350861075003,0.43687845845220463,0.001923816171024384
139.2,0.44145963244260567,0.44200300478730997,0.0018512510973155427
139.4,0.4466375076860762,0.4471808800307805,0.001901114054011499
139.6,0.45144812984271415,0.45199150218741846,0.0016709765052522751
139.8,0.45633704698680577,0.4568804193315101,0.0016245538852524
140.0,0.46111669766240393,0.46166007000710824,0.001592385825827991
140.2,0.46552413112614816,0.46606750347085246,0.0013294740076064682
140.4,0.4696482561196103,0.4701916284643146,0.0009424467149463656
140.6,0.4735619500358099,0.4741053223805142,0.0005215823794927354
140.8,0.47736788655238904,0.47791125889709335,0.00018655063155403884
141.0,0.480728024152568,0.4812713964972723,-0.0003841862473732971
141.2,0.48399472452915215,0.48453809687385646,-0.000822341978993224
141.4,0.48735505215406766,0.48789842449877197,-0.0009255932469242611
141.6,0.4901222175648125,0.4906655899095168,-0.0013662218660356884
141.8,0.4929523251360255,0.4934956974807298,-0.0014744508309966764
142.0,0.495341370633942,0.4958847429786463,-0.0017415283636458834
142.2,0.4976838263556406,0.49822719870034493,-0.0017612215570133594
142.4,0.49995851990651646,0.5005018922512208,-0.0015440129465935648
142.6,0.5017309525332414,0.5022743248779458,-0.001514853462315613
142.8,0.5034103987689091,0.5039537711136135,-0.00125612936460473
143.0,0.5046295999946503,0.5051729723393547,-0.0011280299129204918
143.2,0.5056518929552881,0.5061952652999925,-0.0008614740782216801
143.4,0.5064285949420562,0.5069719672867605,-0.0005007739360325392
143.6,0.5066277389068953,0.5071711112515996,-0.00037494083102262987
143.8,0.5067844188219198,0.5073277911666242,5.262663356309094e-05
144.0,0.5062508346885881,0.5067942070332925,0.00013416280118505597
144.2,0.5056314457193076,0.506174818064012,0.000472672474334801
144.4,0.5044136965144135,0.5049570688591178,0.0005526511128368661
144.6,0.502607331138783,0.5031507034834873,0.00037940313578199714
144.8,0.5007888446721308,0.5013322170168352,0.0005235083621579761
145.0,0.4987123294264766,0.4992557017711809,0.0007316941818731326
145.2,0.49598859006526885,0.49653196240997316,0.0006059880160312336
145.4,0.4931806201881568,0.4937239925328611,0.0006992428695111741
145.6,0.4901123059152712,0.4906556782599755,0.0008239016518000741
145.8,0.4868484829676407,0.487391855312345,0.0010321267960952674
146.0,0.48347406653893155,0.48401743888363585,0.0013950143850808838
146.2,0.47939759891540495,0.47994097126010926,0.0013062375224435763
146.4,0.4753150830372593,0.4758584553819636,0.0014459867843408247
146.6,0.4707959416110015,0.47133931395570583,0.0013670468516083778
146.8,0.4660218384656773,0.4665652108103816,0.0012337453495743222
147.0,0.4609890749316795,0.4615324472763838,0.0010244858458584583
147.2,0.4559118835546279,0.4564552558993322,0.0009351863251190751
147.4,0.4501844449346781,0.4507278172793824,0.00034144777213879207
147.6,0.4441658708737681,0.4447092432184724,-0.0004163052757200081
147.8,0.4383142578766847,0.438857630221389,-0.0008986096386202069
148.0,0.4322741084686876,0.4328174808133919,-0.001479378028592937
148.2,0.42636327711747174,0.42690664946217605,-0.0018587881778016624
148.4,0.42081702213468336,0.42136039447938767,-0.0018190670588089097
148.6,0.41519386461989743,0.41573723696460174,-0.0018184711018860433
148.8,0.4098262393097449,0.4103696116544492,-0.0015404795845010422
149.0,0.404733324818664,0.4052766971633683,-0.000980815785952549
149.2,0.3993888328036471,0.3999322051483514,-0.000679518464325346
149.4,0.3944029845150549,0.3949463568597592,-3.88372592932118e-05
149.6,0.3889359083550209,0.3894792806997252,9.027959548341125e-05
149.8,0.3838041379041151,0.3843475102488194,0.0005147828038460367
150.0,0.37828038490326255,0.37882375724796685,0.0004993774989306421
150.5,0.36505411498355633,0.36559748732826064,0.0007966717196540296
151.0,0.35172464893287486,0.35226802127757917,0.0006029358981171073
151.5,0.33812984429713094,0.33867321664183525,-0.0002314495332639832
152.0,0.3251409934083406,0.3256843657530449,-0.0007618988533045212
152.5,0.3130764718711273,0.3136198442158316,-0.0005461031013730411
153.0,0.30145434460171755,0.30199771694642186,9.387052622122916e-05
153.5,0.2894001881426253,0.2899435604873296,0.0004613306723803001
154.0,0.27714866499795926,0.27769203734266357,0.0009667235551574227
154.5,0.26369884497888807,0.2642422173235924,0.0007632706781854903
155.0,0.24983737671995984,0.2503807490646642,0.0007524979717660196
155.5,0.23507076174787583,0.23561413409258014,0.000502638330751648
156.0,0.21970654661792496,0.22024991896262927,0.0003210618638522511
156.5,0.20339995229897473,0.20394332464367904,-0.00020196046989606753
157.0,0.18705847901074327,0.18760185135544757,-0.00028547798371694744
157.5,0.1708060433092186,0.17134941565392292,1.4985443563014789e-05
158.0,0.1541425799782427,0.15468595232294702,-1.979889688369374e-05
158.5,0.137836359416931,0.13837973176163532,0.0001356846676110468
159.0,0.12140770610993648,0.1219510784546408,-0.0002472068645836545
159.5,0.1057307168457468,0.10627408919045112,-0.0005326563830278935
160.0,0.0906452739514065,0.09118864629611081,-0.001093482079483149
160.5,0.07691586439903987,0.07745923674374419,-0.0013406152994636378
161.0,0.06474293214984274,0.06528630449454706,-0.001203961402439238
161.5,0.053609747397640566,0.054153119742344887,-0.0012819055018602268
162.0,0.04433051908207764,0.04487389142678196,-0.0007935328619824225
162.5,0.03610086418965936,0.03664423653436368,-0.0005318817973441886
163.0,0.02936320348891581,0.029906575833620132,-4.843484502945611e-06
163.5,0.024010410797777024,0.024553783142481345,0.0007605522064129643
164.0,0.019699131989549874,0.020242504334254195,0.0015228106500091813
164.5,0.01632242845105217,0.016865800795756492,0.0022900866191391048
165.0,0.013420156886214405,0.013963529230918724,0.002722804255508207
165.5,0.011071340471628752,0.011614712816333073,0.0030194856071701064
166.0,0.009375491532257075,0.009918863876961396,0.003392987254399173
166.5,0.0077375691615246996,0.00828094150622902,0.0033518818853244233
167.0,0.006437942806602759,0.006981315151307079,0.0032682620936617763
167.5,0.005240830537082559,0.005784202881786879,0.002985240295515747
168.0,0.004430698989026006,0.004974071333730326,0.002853381656653448
168.5,0.0036871846738151153,0.004230557018519435,0.0026063641482826695
169.0,0.0030516266028376903,0.0035949989475420104,0.002328705144399583
169.5,0.0026851814568768476,0.0032285538015811677,0.0022153103597211668
170.0,0.002269588528746072,0.002812960873450392,0.0019737422890225855
170.5,0.0018750613800243127,0.002418433724728633,0.0016935625576872532
171.0,0.0016014301877621704,0.0021448025324664905,0.0014887935345273984
171.5,0.0013887694203612365,0.0019321417650655565,0.0013096920035850937
172.0,0.0012775844381375787,0.0018209567828418988,0.001203894818681609
172.5,0.0010141302357921443,0.0015575025804964644,0.0009225156755781683
173.0,0.0009089928171530826,0.0014523651618574026,0.0007793414323853782
173.5,0.0007090913760740798,0.0012524637207783997,0.0005233100652965565
174.0,0.000625672888020442,0.001169045232724762,0.0003668673437404548
174.5,0.0006238982318165177,0.0011672705765208378,0.0002758254998929747
175.0,0.0007538437120314333,0.0012972160567357534,0.00030056895390715636
175.5,0.0007765410530909297,0.0013199133977952497,0.00020224768719375504
176.0,0.0007710754319609164,0.0013144477766652365,5.999161135933199e-05
176.5,0.0009947489644399911,0.0015381213091443112,0.00013116369841324488
177.0,0.001045926928021698,0.0015892992727260182,1.4276575559816086e-05
177.5,0.0014512462508757967,0.0019946185955801166,0.00023625716292452231
178.0,0.0014271288385470516,0.001970501183251372,1.4005140626195678e-05
178.5,0.001663576931539298,0.002206949276243618,3.82242945539896e-05
179.0,0.001630053679045574,0.002173426023749894,-0.00022066917801713245
179.5,0.0019689587213856125,0.0025123310660899326,-0.00011905135268560013
180.0,0.0024174249138898627,0.0029607972585941828,8.1717755145168e-05
180.5,0.00248779032431452,0.00303116266901884,-0.00010423063695392696
181.0,0.002600011374019807,0.003143383718724127,-0.00025486653523287654
181.5,0.002983809055368593,0.003527181400072913,-0.00013812957434997412
182.0,0.003089097080346697,0.003632469425051017,-0.0003015245869708843
182.5,0.00326898736164872,0.0038123597063530403,-0.0003891487659399939
183.0,0.0035600053912847565,0.004103377735989077,-0.0003615173963912319
183.5,0.0037007533745182326,0.004244125719222553,-0.000476949533562465
184.0,0.003815121323733868,0.004358493668438188,-0.0006084123435569702
184.5,0.003950781844558719,0.0044941541892630395,-0.0007050870007191106
185.0,0.004291188298861142,0.004834560643565462,-0.0005804348206856699
185.5,0.00448981910623929,0.00503319145094361,-0.0005780190184847154
186.0,0.0046588576824909845,0.0052022300271953046,-0.0005828905948513001
186.5,0.004964991368810195,0.005508363713514515,-0.0004258529235564865
187.0,0.005107249383510225,0.005650621728214545,-0.00040568294082034967
187.5,0.005189249540483842,0.005732621885188162,-0.0004169372164356403
188.0,0.005547216411275253,0.006090588755979573,-0.00012197842801639925
188.5,0.005773704136290414,0.006317076480994734,7.271251646352901e-05
189.0,0.005902853048587001,0.006446225393291321,0.00020176909995070925
189.5,0.006025670021531268,0.0065690423662355885,0.00035620732590839043
190.0,0.006064952112302135,0.006608324457006455,0.0004583493675862369
190.5,0.006107275491314496,0.006650647836018816,0.0005938247327740686
191.0,0.005802587426026311,0.006345959770730631,0.00041118628447758994
191.5,0.0055343698948621765,0.0060777422395664965,0.00029210885102250346
192.0,0.005876513221145418,0.006419885565849738,0.0008083075972309776
192.5,0.005783277808025214,0.006326650152729534,0.0009115526980743131
193.0,0.0056134898817708926,0.006156862226475213,0.0009579244294656529
193.5,0.00537156358225015,0.00591493592695447,0.0009488990472253872
194.0,0.005000576501340144,0.0055439488460444645,0.0008244904958613769
194.5,0.0046414927323206075,0.0051848650770249275,0.000722539944902823
195.0,0.003863349800487409,0.0044067221451917285,0.00020896753372645713
195.5,0.003543841090729716,0.004087213435434036,0.0001584161026842463
196.0,0.003056510510196905,0.003599882854901225,-5.849797282776693e-05
196.5,0.002845202693708732,0.0033885750384130523,-6.848906339801224e-07
197.0,0.0024280284791843615,0.0029714008238886816,-0.00015257379218714274
197.5,0.0019596007857781,0.00250297313048242,-0.00036184298216913966
198.0,0.0018206150956507324,0.0023639874403550525,-0.00024981418306196457
198.5,0.001288097261290154,0.001831469605994474,-0.0005411881657819901
199.0,0.0009147143515864232,0.0014580866962907433,-0.0006847258052724388
199.5,0.0004935595869278942,0.0010369319316322141,-0.0008884630060785543
200.0,0.0003447067140831931,0.0008880790587875132,-0.0008331634184416204
200.5,1.161866626969105e-06,0.0005445342113312892,-0.0009863799951755918
201.0,-0.00016768571944525597,0.0003756866252590641,-0.000979022992139542
201.5,-0.00018420993205161263,0.00035916241265270747,-0.0008335291102863846
202.0,-0.0003459829913422803,0.0001973893533620398,-0.0008473226982124735
202.5,-0.0004410766179392412,0.00010229572676507886,-0.0008081448953334437
203.0,-0.0004015021973233469,0.0001418701473809732,-0.0006475227165611963
203.5,-0.0003848125949915064,0.00015855974971281365,-0.0005223997921267657
204.0,-0.0005121347995748676,3.123754512945247e-05,-0.0005531971171451128
204.5,-0.0005433723447043201,0.0,-0.0004990420734452897
205.0,-0.0004997579589706001,4.361438573372001e-05,-0.00038034562724851916
205.5,-0.0004153001766655861,0.00012807216803873399,-0.00023027103314392791
206.0,-0.0003323376179564452,0.00021103472674787485,-9.030748912590707e-05
206.5,-0.0003457393635236075,0.00019763298118071257,-5.4487031917614366e-05
207.0,-0.0002492631620762366,0.00029410918262808347,8.424361086750313e-05
207.5,-0.00026008973703237754,0.00028328260767194254,0.00010947787012237161
208.0,8.098882773551888e-05,0.0006243611724398389,0.0004811527520161189
208.5,-2.147109714551386e-05,0.0005219012475588062,0.00040450288723120067
209.0,2.6615383686572713e-05,0.0005699877283908928,0.00047423701022470885
209.5,0.00010419984325672242,0.0006475721879610425,0.000569874413285795
210.0,6.238713427872284e-05,0.0006057594789830429,0.0005430314484433301
210.5,-3.0722766760036074e-05,0.000512649577944284,0.00046226457881834367
211.0,-4.87222859759781e-05,0.000494650058728342,0.0004543850878286671
211.5,-0.00016061491380639563,0.00038275743089792445,0.0003507434224790983
212.0,-3.5954086489077385e-06,0.0005397769360554124,0.0005144525310088061
212.5,-0.0002005526873122938,0.0003428196573920263,0.00032288884603364805
213.0,-0.00010609797812544872,0.00043727436657887134,0.0004216681640934985
213.5,-0.00020394897042967525,0.00033942337427464485,0.00032726554535779823
214.0,-0.0001544839363662265,0.0003888884083380936,0.00037946514452232813
214.5,-0.00025406160857146084,0.00028931073613285924,0.0002820441035107498
215.0,-6.494326797770268e-05,0.0004784290767266174,0.000472853990469413
215.5,-0.00031022609463655774,0.00023314625006776233,0.00022889069209456177
216.0,-1.9167682303300296e-05,0.0005242046624010198,0.0005209728364404039
216.5,-0.0004078178028865651,0.00013555454181775497,0.00013311265261913994
217.0,-0.0003023506950643224,0.00024102164963999768,0.00023918599710672124
217.5,-0.0002836198557763692,0.0002597524889279509,0.00025837958060211157
218.0,-0.0002833254643000056,0.0002600468804043145,0.0002590252845133751
218.5,-0.0002847376739032755,0.0002586346708010446,0.0002578783548229294
219.0,-0.0005254066347156691,1.7965709988650982e-05,1.7408634622144542e-05
219.5,-0.0003617917643751702,0.0001815805803291499,0.00018117234444480135
220.0,-0.0001637378144428105,0.00037963453026150956,0.00037933688776074266
