wavelength,absorbance,absorbance_bk,residual_3gauss
117.0,0.651486525364638,0.6570422562452036,-0.0017291160669232752
117.5,0.6485060900545968,0.6540618209351624,-0.002391074165572271
118.0,0.6436393796791999,0.6491951105597655,-0.0037277126795667304
118.5,0.6404958730569771,0.6460516039375427,-0.002155498227069841
119.0,0.6376240357399636,0.6431797666205292,0.0008398068214781063
119.5,0.6326925986464205,0.6382483295269861,0.0028843117162686838
120.0,0.6239909528138757,0.6295466836944413,0.00221627836025462
120.5,0.6164069286566564,0.621962659537222,0.0036637770481040555
121.0,0.6068287805866844,0.61238451146725,0.004046531873552528
121.5,0.5968084922656524,0.602364223146218,0.004839067498095706
122.0,0.5841812437487072,0.5897369746292728,0.0037899982666262932
122.5,0.5707300511410703,0.5762857820216359,0.0025864743556461844
123.0,0.5570993394480157,0.5626550703285813,0.0017675550828519793
123.5,0.5424530958457883,0.5480088267263539,0.00038217242207816415
124.0,0.5270295272709966,0.5325852581515622,-0.0014563683572441644
124.5,0.5119812970442992,0.5175370279248648,-0.002730245392217112
125.0,0.4966086765500975,0.5021644074306632,-0.004283959398237114
125.5,0.48170062339651526,0.4872563542770809,-0.0054830972371741615
126.0,0.4678872334229864,0.47344296430355204,-0.005861518879232808
126.5,0.4554191314233056,0.46097486230387125,-0.005341343754965977
127.0,0.4424653423256469,0.44802107320621254,-0.005934132349305066
127.5,0.433055120692092,0.43861085157265767,-0.003797722500320677
128.0,0.4238715215490545,0.42942725242962015,-0.0024408782042231736
128.5,0.4159854200387724,0.4215411509193381,-0.000986992162964384
129.0,0.4098155135610805,0.41537124444164614,0.0007887300110790418
129.5,0.40497118706377855,0.4105269179443442,0.0023055049163106522
130.0,0.40216606144247113,0.4077217923230368,0.004094442775805063
130.5,0.4006932682835223,0.40624899916408796,0.005278267206406728
131.0,0.40103218976061333,0.406587920641179,0.006182958723835341
131.5,0.4024120060569833,0.40796773693754895,0.005906565793577456
132.0,0.40562606364339887,0.41118179452396453,0.005139061818691115
132.5,0.41181110619477823,0.4173668370753439,0.004947119296224323
133.0,0.41938433010226134,0.424940060982827,0.0037165600028967183
133.5,0.4288500826713136,0.43440581355187924,0.0019640692023368267
134.0,0.44095478742410527,0.4465105183046709,0.0004965092244736402
134.5,0.45503457871908887,0.4605903095996545,-0.001237943054277879
135.0,0.47106287122254953,0.4766186021031152,-0.00309986329360723
135.5,0.4892580294423251,0.49481376032289076,-0.004649922753885427
136.0,0.5088892345535235,0.5144449654340891,-0.00634361505947012
136.5,0.530530398471008,0.5360861293515736,-0.0072796759151138035
137.0,0.5543378283955757,0.5598935592761413,-0.006926593195974773
137.5,0.5799455291986316,0.5855012600791972,-0.005233351511826023
138.0,0.6063865427730065,0.6119422736535721,-0.002715966869467956
138.5,0.6328697448414105,0.638425475721976,0.00030973476612106143
139.0,0.6586863797931729,0.6642421106737385,0.0036235812943765655
139.5,0.6819424085440233,0.6874981394245889,0.005821116681271943
140.0,0.7022644241359226,0.7078201550164882,0.007006363920345704
140.5,0.7181911015039742,0.7237468323845399,0.006169657706434961
141.0,0.7300507508578643,0.7356064817384299,0.004051559770764879
141.5,0.7378509651599762,0.7434066960405418,0.0010193171212008467
142.0,0.7425283370007609,0.7480840678813265,-0.0016956797718933325
142.5,0.7447667323000918,0.7503224631806574,-0.0031904705649127285
143.0,0.7447193529714291,0.7502750838519947,-0.0031774293228717942
143.5,0.7415042012361611,0.7470599321167267,-0.0024954392712108753
144.0,0.7349233827671149,0.7404791136476805,-0.0013944839516970564
144.5,0.7245635719454857,0.7301193028260513,-0.00043595630967185883
145.0,0.7108793071066657,0.7164350379872313,0.0005933001831862628
145.5,0.6939059519444285,0.6994616828249941,0.0014002929408043485
146.0,0.6740599775656608,0.6796157084462264,0.0019963063361878586
146.5,0.6513796284454432,0.6569353593260088,0.0019514927629882273
147.0,0.6263318413353289,0.6318875722158945,0.001219278469546059
147.5,0.5988570443552561,0.6044127752358217,-0.0007982502398087288
148.0,0.5711118683943154,0.576667599274881,-0.0024846897644175137
148.5,0.5446425444531239,0.5501982753336895,-0.0028116564346696293
149.0,0.5201273113722377,0.5256830422528033,-0.0015721173315523806
149.5,0.4963871398034661,0.5019428706840318,-0.00034696275580536895
150.0,0.47349773614939167,0.4790534670299573,0.0006264591810495879
150.5,0.4515367702717012,0.45709250115226685,0.0012161193056567932
151.0,0.4304199228041608,0.43597565368472646,0.0012395124752058173
151.5,0.40997275006025047,0.4155284809408161,0.0005361934335221807
152.0,0.39074805420293174,0.3963037850834974,-0.0002222018310911733
152.5,0.37335778735982056,0.3789135182403862,-0.0002152537790892639
153.0,0.3570268136985832,0.36258254457914885,5.7880830132028827e-05
153.5,0.3413395853986631,0.34689531627922876,0.0004977766772634729
154.0,0.32545260893189726,0.3310083398124629,0.0005868810424302096
154.5,0.3089712827553552,0.31452701363592084,0.00023575628927557934
155.0,0.2921940441837128,0.29774977506427847,-8.419506060675097e-07
155.5,0.2745144543724067,0.28007018525297234,-0.0005448352488882646
156.0,0.25633585431454703,0.2618915851951127,-0.0008959383422839085
156.5,0.23766809173159953,0.24322382261216519,-0.0010422145986717646
157.0,0.2192444384801135,0.22480016936067915,-0.00034156030294826834
157.5,0.2001522139199144,0.20570794480048005,0.00011884285103017089
158.0,0.1809587396773872,0.18651447055795284,0.0006653250647886133
158.5,0.16170872900857555,0.16726445988914118,0.0010568203775024598
159.0,0.14250147814928607,0.1480572090298517,0.0010861887310529283
159.5,0.12350991793158635,0.129065648812152,0.0006233307088087114
160.0,0.1053866994575044,0.11094243033807004,4.300497668971448e-05
160.5,0.0885190946829759,0.09407482556354155,-0.0005026616638906523
161.0,0.0730355169695375,0.07859124785010314,-0.0010653279731508425
161.5,0.05929075165521278,0.06484648253577843,-0.0014086384831290127
162.0,0.04761219967923674,0.05316793055980238,-0.0012609869805039753
162.5,0.03746524818607167,0.043020979066637315,-0.0011540093031598628
163.0,0.02917651020184051,0.03473224108240615,-0.0007069677275117481
163.5,0.022259907423007107,0.02781563830357275,-0.0003107665514266479
164.0,0.017028739081637614,0.022584469962203257,0.000472844348881285
164.5,0.012885712683230896,0.01844144356379654,0.0011900217687817842
165.0,0.009475544877153866,0.015031275757719509,0.0016370796226970706
165.5,0.0068508349232632975,0.01240656580382894,0.002017588020349405
166.0,0.004777655048398494,0.010333385928964137,0.0022411205567033927
166.5,0.003346471883602004,0.008902202764167647,0.0025293565427880055
167.0,0.0019502495337127969,0.00750598041427844,0.002391272403222391
167.5,0.001190943323545069,0.006746674204110712,0.002528371062313497
168.0,0.000569911820069801,0.006125642700635444,0.0025251376064167577
168.5,-0.00029972218686293093,0.005256008693702712,0.0020623898855389993
169.0,-0.0005909623620128064,0.004964768518552837,0.002020981831088571
169.5,-0.000842384959711272,0.004713345920854371,0.0019042627327656584
170.0,-0.0011846025595201592,0.004371128321045484,0.001613600274392126
170.5,-0.0014547444940720539,0.004100986386493589,0.0013358038896590422
171.0,-0.0018482306177976604,0.0037075002627679826,0.0008930678107665828
171.5,-0.0020225962658241415,0.0035331346147415015,0.0006406221866241818
172.0,-0.002259945301331116,0.003295785579234527,0.00030549967191764813
172.5,-0.0025698594048134053,0.0029858714757522377,-0.00011540025187563394
173.0,-0.002817452159994417,0.002738278720571226,-0.0004826116750246668
173.5,-0.002872656934498453,0.00268307394606719,-0.0006628228097225841
174.0,-0.002933009760336576,0.002622721120229067,-0.0008512427586056682
174.5,-0.003138670981593681,0.002417059898971962,-0.0011863253289854268
175.0,-0.003277259578437518,0.002278471302128125,-0.0014543951122570407
175.5,-0.0032389104776520744,0.0023168204029135686,-0.0015445624906358603
176.0,-0.003370705213357326,0.002185025667208317,-0.001803059287821322
176.5,-0.003119966600169978,0.002435764280395665,-0.0016764715608073863
177.0,-0.0033162537493360345,0.0022394771312296085,-0.0019936954452237057
177.5,-0.0031136327823780446,0.0024420980981875984,-0.0019081839611250055
178.0,-0.002563941330034131,0.002991789550531512,-0.0014711976749973272
178.5,-0.0025934876612789515,0.0029622432192866915,-0.0016084965220892508
179.0,-0.0024459433636419567,0.0031097875169236863,-0.0015632293407671057
179.5,-0.0022495030540700383,0.0033062278264956047,-0.0014630930363678683
180.0,-0.0020131072372682095,0.0035426236432974335,-0.0013165564732544122
180.5,-0.0018135128876579528,0.00374221799290769,-0.0011999330109913739
181.0,-0.001662552907343097,0.0038931779732225462,-0.0011246424084129939
181.5,-0.0017009338091787164,0.003854797071386927,-0.001231011163832031
182.0,-0.0012527723547080035,0.0043029585258576395,-0.0008428118338074829
182.5,-0.001260203956111834,0.0042955269244538095,-0.0009018740113808897
183.0,-0.0006923849455017663,0.004863345935063877,-0.00037708897661976274
183.5,-0.0008222851470132379,0.004733445733552405,-0.0005412043891226785
184.0,-0.0006824662938504874,0.004873264586715156,-0.00042660451567424606
184.5,-0.000413878147235886,0.005141852733329757,-0.00017410781321721205
185.0,-3.950260231331449e-05,0.005516228278252329,0.0001933878751549942
185.5,6.987036487041465e-05,0.005625601245436058,0.00030512867657204144
186.0,0.0001019262752802746,0.005657657155845918,0.0003487879757243864
186.5,0.0003368332197929913,0.005892564100358634,0.0006044736095733791
187.0,0.0005674497567463609,0.006123180637312004,0.0008649362995065317
187.5,0.0004080183423115884,0.005963749222877231,0.0007442640239170911
188.0,0.00019813432617651924,0.005753865206742162,0.0005818523531816791
188.5,0.00034414201048988573,0.005899872891055528,0.0007838022294484031
189.0,0.000838339441548529,0.006394070322114172,0.001342126840484262
189.5,0.00043820025231939967,0.0059939311328850425,0.0010139758811156235
190.0,0.0009338397624128703,0.006489570642978513,0.0015891043804113231
190.5,0.000745622317886151,0.006301353198451794,0.001487483045071577
191.0,0.0009877923127233855,0.006543523193289029,0.0018229325260053844
191.5,0.0008901093584504428,0.006445840239016086,0.0018247620372762773
192.0,0.00036339777484978736,0.00591912865541543,0.0014033224612490392
192.5,0.0003873739596960103,0.005943104840261653,0.0015378374574472097
193.0,0.0002792383113347817,0.005834969191900425,0.0015449992078394228
193.5,0.00014485961678630397,0.005700590497351947,0.0015301566700187431
194.0,4.87731096475568e-05,0.0056045039902132,0.0015573175017902239
194.5,-0.00022839708045870367,0.005327333800106939,0.0014065743391623153
195.0,-0.0002834072879500852,0.005272323592615558,0.0014806391884538187
195.5,-0.0007942357388428441,0.0047614951417227986,0.0011010056383201961
196.0,-0.0014216909234268632,0.00413403995713878,0.0006063439802992503
196.5,-0.001852116032055944,0.003703614848509699,0.00030980008893130876
197.0,-0.002499497865083439,0.003056233015482204,-0.00020311037736346843
197.5,-0.002714050007730941,0.002841680872834702,-0.00028308226979697646
198.0,-0.003175460500225089,0.002380270380340554,-0.0006102659881713395
198.5,-0.003431746021428816,0.002123984859136827,-0.0007331193004507996
199.0,-0.003885142861305799,0.001670588019259844,-0.00105429623136545
199.5,-0.004098910440017259,0.0014568204405483844,-0.0011374487870450278
200.0,-0.004185553580124584,0.0013701773004410594,-0.001095447727516549
200.5,-0.004624877579058476,0.000930853301507167,-0.0014084364358463567
201.0,-0.004701024831702281,0.0008547060488633624,-0.0013608666318045922
201.5,-0.004757156878568413,0.0007985740019972303,-0.0012961798001702935
202.0,-0.0046954735637523256,0.0008602573168133175,-0.0011168260093502545
202.5,-0.005139599568913705,0.0004161313116519379,-0.001446650375175689
203.0,-0.005107852601317752,0.00044787827924789095,-0.0013041614339551525
203.5,-0.005225027220027125,0.0003307036605385179,-0.0013143153926792738
204.0,-0.005283920441100698,0.00027181043946494527,-0.0012700423791419061
204.5,-0.005154368688982718,0.0004013621915829246,-0.0010412842395263271
205.0,-0.005275410724056756,0.00028032015650888715,-0.001067158492608445
205.5,-0.005428619063317349,0.00012711181724829428,-0.0011292909358724026
206.0,-0.005325999722890692,0.00022973115767495073,-0.0009397167101206064
206.5,-0.005555730880565643,0.0,-0.0010866203984271976
207.0,-0.005362521031668942,0.00019320984889670094,-0.0008146957106037298
207.5,-0.005326015898316286,0.00022971498224935716,-0.0007035539914776063
208.0,-0.005368353624900871,0.0001873772556647722,-0.0006752810648089565
208.5,-0.005406492736480837,0.00014923814408480604,-0.0006467668693986554
209.0,-0.005422854425119651,0.0001328764554459922,-0.0006003494334617656
209.5,-0.005472890154290565,8.28407262750781e-05,-0.00059138415969666
210.0,-0.005334803913408524,0.0002209269671571189,-0.00039796773686892107
210.5,-0.0053337412124939325,0.0002219896680717105,-0.0003451287532124706
211.0,-0.005027135729392308,0.0005285951511733349,9.824089013404469e-06
211.5,-0.004977509218132082,0.0005782216624335614,0.00010450056065341041
212.0,-0.0050185250624274055,0.0005372058181382375,0.00010537392021308376
212.5,-0.00481976529693492,0.0007359655836307226,0.00034300254131614433
213.0,-0.004956282131255408,0.0005994487493102352,0.00024247712452202442
213.5,-0.005093143574993632,0.0004625873055720108,0.00013887390006543665
214.0,-0.0051437392085257674,0.0004119916720398756,0.00011894778024287297
214.5,-0.005122632759399131,0.0004330981211665124,0.0001682788034849923
215.0,-0.005084389883355488,0.0004713409972101554,0.00023244347177978279
215.5,-0.004936317040026971,0.0006194138405386717,0.00040427509085908973
216.0,-0.004854836790979671,0.000700894089585972,0.0005074877838607234
216.5,-0.004932091759072529,0.0006236391214931138,0.0004500719369360678
217.0,-0.00497151092119614,0.0005842199593695026,0.00042872740135307377
217.5,-0.004877423531646592,0.0006783073489190512,0.0005392491507572657
218.0,-0.004818053575759537,0.0007376773048061057,0.0006135324893106548
218.5,-0.005097156437784752,0.00045857444278089073,0.00034793612162059686
219.0,-0.005001204891629398,0.0005545259889362447,0.00045609597038407713
219.5,-0.0048211701869522346,0.0007345606936134084,0.0006471439635875442
220.0,-0.004874150562078263,0.0006815803184873799,0.0006040794539830841
