wavelength,absorbance,absorbance_bk,residual_3gauss
117.0,0.9609665518201971,0.9617448629293814,-0.003509373501883073
117.5,0.9585844539556752,0.9593627650648595,0.0011795759902907266
118.0,0.9472533762772057,0.9480316873863901,-0.0018670674282258437
118.5,0.9386312083596051,0.9394095194687895,-0.0010567670333412327
119.0,0.9271528160679201,0.9279311271771045,-0.0020224298758934056
119.5,0.9178566506464021,0.9186349617555865,0.00020458768152264994
120.0,0.9041623111422867,0.9049406222514711,-0.0010276561242448246
120.5,0.895070145922932,0.8958484570321164,0.0032081104185976983
121.0,0.878881225733858,0.8796595368430423,0.001138416627010308
121.5,0.865507837567835,0.8662861486770194,0.0025994647914659996
122.0,0.8483722028714568,0.8491505139806411,0.0009355972584111916
122.5,0.8305460716557386,0.8313243827649229,-0.0008615539867715682
123.0,0.8134149219813255,0.8141932330905098,-0.0014895215414610918
123.5,0.7961882274837171,0.7969665385929015,-0.0018256053348035817
124.0,0.7775220319467827,0.7783003430559671,-0.0033053800195287364
124.5,0.7587854313687027,0.759563742477887,-0.004657485328683153
125.0,0.7400463007010736,0.7408246118102579,-0.0059193207143489746
125.5,0.7226618155038702,0.7234401266130546,-0.005848029030419255
126.0,0.704425518812243,0.7052038299214274,-0.006774928511480316
126.5,0.6883293196222403,0.6891076307314247,-0.005844890616155007
127.0,0.6727640302118041,0.6735423413209884,-0.004816917181498792
127.5,0.6583637413291171,0.6591420524383015,-0.003220460229901745
128.0,0.6447286186837158,0.6455069297929001,-0.001632733027989497
128.5,0.6329551062364777,0.633733417345662,0.0008521406487429495
129.0,0.6218447689133957,0.62262308002258,0.0028335257088816235
129.5,0.6125979073689468,0.6133762184781312,0.005300481908419585
130.0,0.6041379810463038,0.6049162921554881,0.006959895894634749
130.5,0.5970231585976401,0.5978014697068245,0.008152883466939542
131.0,0.5927031584321091,0.5934814695412934,0.010117580901994216
131.5,0.5893801341197031,0.5901584452288875,0.01085695893995009
132.0,0.587784123031644,0.5885624341408283,0.010921976473277417
132.5,0.5884687756722425,0.5892470867814269,0.010715512762517476
133.0,0.5911176471968291,0.5918959583060135,0.00980701300259701
133.5,0.5959414004533896,0.596719711562574,0.008337797316723572
134.0,0.6032724200337021,0.6040507311428864,0.006623101741869752
134.5,0.6120814126708071,0.6128597237799914,0.0036749890894439696
135.0,0.6252484051147181,0.6260267162239025,0.002478124421379957
135.5,0.6394559045564807,0.6402342156656651,-0.00011418711505339907
136.0,0.6575137654080928,0.6582920765172772,-0.0010544483192388432
136.5,0.6775487279073928,0.6783270390165772,-0.0019131327662019748
137.0,0.7008154505713192,0.7015937616805036,-0.0010718205723797558
137.5,0.7256006392281248,0.7263789503373091,0.00017433915642361963
138.0,0.7509059605117961,0.7516842716209805,0.0012906957306757505
138.2,0.7597514968878807,0.760529807997065,0.0003894157731747505
138.4,0.76955853611757,0.7703368472267543,0.0004582182374365251
138.6,0.7800183643042693,0.7807966754134537,0.0012219046370202102
138.8,0.789560393716488,0.7903387048256724,0.0011437020926231556
139.0,0.798844924224499,0.7996232353336834,0.0009178819340569522
139.2,0.8080062281768302,0.8087845392860146,0.0007126998052299216
139.4,0.8179003482959325,0.8186786594051169,0.0014180477622794951
139.6,0.8265767113822333,0.8273550224914177,0.0011169220653588496
139.8,0.8354668760605377,0.8362451871697221,0.0012740258001284754
140.0,0.843265783197133,0.8440440943063173,0.000616875840225739
140.2,0.8504694060347429,0.8512477171439272,-0.0003266879488950103
140.4,0.8580178513023213,0.8587961624115057,-0.0005855391943698773
140.6,0.864486975043751,0.8652652861529354,-0.0015537826817226819
140.8,0.8700947292113891,0.8708730403205734,-0.002984536454421427
141.0,0.8763773033532318,0.8771556144624162,-0.0033139133882378324
141.2,0.8816180765197613,0.8823963876289457,-0.004232186566001994
141.4,0.8859672239885008,0.8867455350976852,-0.005564293397750442
141.6,0.8911397759771476,0.8919180870863319,-0.005571880958843645
141.8,0.895902785969903,0.8966810970790874,-0.005466234672935277
142.0,0.8992020985203489,0.8999804096295333,-0.00628160034211056
142.2,0.9037876712230608,0.9045659823322452,-0.005249944815731045
142.4,0.9064371674466111,0.9072154785557954,-0.005577438808091362
142.6,0.909622737572081,0.9104010486812654,-0.004777744339977796
142.8,0.9116650249678137,0.912443336076998,-0.004518070902022053
143.0,0.9132984038402077,0.914076714949392,-0.004053993625836361
143.2,0.9148572489947356,0.91563556010392,-0.0030432339334887093
143.4,0.9158235740987177,0.9166018852079021,-0.001998066632468043
143.6,0.9149742363955305,0.9157525475047149,-0.0021381560869936367
143.8,0.9145965234244791,0.9153748345336634,-0.0011750064741917754
144.0,0.9122424133877712,0.9130207244969556,-0.0015577349818011177
144.2,0.9109265146090216,0.911704825718206,-0.0002751628828342456
144.4,0.9071535902533449,0.9079319013625292,-0.0008283185196421572
144.6,0.9036774772683202,0.9044557883775045,-0.0004715432004208653
144.8,0.8995175162264304,0.9002958273356148,-0.0001960829856685331
145.0,0.8949812312626039,0.8957595423717882,0.00029257353715550494
145.2,0.8898344931212293,0.8906128042304137,0.0007448456357409539
145.4,0.8849508787386419,0.8857291898478262,0.002016413996672184
145.6,0.8788722599512703,0.8796505710604546,0.0026288121589949087
145.8,0.8716002424559569,0.8723785535651413,0.002560879551800066
146.0,0.8646552156938855,0.8654335268030698,0.003307839910161925
146.2,0.85644461927554,0.8572229303847244,0.0032496142410460838
146.4,0.8485321403977093,0.8493104515068937,0.003920086718549043
146.6,0.8393074916813411,0.8400858027905255,0.0036769771270281915
146.8,0.8298456969163995,0.8306240080255839,0.0035612516407205197
147.0,0.8202368439489677,0.821015155058152,0.0036270354058806076
147.2,0.8093820131526788,0.8101603242618631,0.0027377393114362825
147.4,0.799290810678688,0.8000691217878724,0.0028638335578425878
147.6,0.7881947146556445,0.7889730257648289,0.0021964788243493683
147.8,0.7760835262931347,0.7768618374023191,0.0006843085651209169
148.0,0.7655898387963502,0.7663681499055346,0.0009182756083204735
148.2,0.7543659985438397,0.755144309653024,0.0005090362279424054
148.4,0.7434560495996394,0.7442343607088238,0.0004593597267507077
148.6,0.733432342421744,0.7342106535309284,0.0013012394579271502
148.8,0.7233110814437945,0.7240893925529789,0.0020119730414872583
149.0,0.7132570556648842,0.7140353667740685,0.002719446996811481
149.2,0.7036015430699942,0.7043798541791786,0.0037206057903357292
149.4,0.694133387062166,0.6949116981713503,0.004773090923583689
149.6,0.6841297071066129,0.6849080182157973,0.00512649824851541
149.8,0.6742199973983835,0.6749983085075678,0.005386992220240638
150.0,0.6639208978357478,0.6646992089449322,0.005052545634222971
150.5,0.6404562128050125,0.6412345239141969,0.005524310785613107
151.0,0.6155363428771774,0.6163146539863618,0.0031251470767106326
151.5,0.5908257518779421,0.5916040629871264,-0.000319303967268314
152.0,0.5672114614694781,0.5679897725786625,-0.0035527155707671954
152.5,0.5450833956390568,0.5458617067482412,-0.005651450246911605
153.0,0.5243568580160721,0.5251351691252565,-0.006071863525811905
153.5,0.5030695897040429,0.5038479008132273,-0.006139934397507152
154.0,0.48097484910332183,0.4817531602125062,-0.005548782621049908
154.5,0.45699584327718856,0.4577741543863729,-0.004984428823325171
155.0,0.4323980391398425,0.43317635024902684,-0.003010567930512853
155.5,0.40549003256596294,0.4062683436751473,-0.0013931749639313762
156.0,0.3776863230167935,0.37846463412597786,0.0009711136067354076
156.5,0.3489777745002832,0.3497560856094676,0.003565288339489603
157.0,0.31983063814802326,0.3206089492572076,0.006213490642424546
157.5,0.291495654366485,0.29227396547566936,0.009464032544165002
158.0,0.2613327742624859,0.26211108537167027,0.009987659814336414
158.5,0.2314180090614273,0.23219632017061162,0.009247443214033507
159.0,0.20241845400012848,0.2031967651093128,0.007419425559612419
159.5,0.17463474098425508,0.1754130520934394,0.0044602137582061
160.0,0.14787520498164927,0.1486535160908336,-1.3622564400406212e-05
160.5,0.12380773790964573,0.12458604901883008,-0.004385005553502019
161.0,0.10237696711075968,0.10315527821994402,-0.008642038599981874
161.5,0.08350201853305649,0.08428032964224083,-0.01270926063842305
162.0,0.06705126674260804,0.06782957785179239,-0.0165031832977892
162.5,0.0535102817533232,0.05428859286250755,-0.019292159419749905
163.0,0.04197559357339797,0.04275390468258231,-0.02172560003473411
163.5,0.03295864854843227,0.03373695965761662,-0.02304712164766199
164.0,0.025757279956162525,0.02653559106534687,-0.023734316514336634
164.5,0.02007093018950129,0.020849241298685636,-0.02388963746596451
165.0,0.014830345512817363,0.015608656622001707,-0.024412777024155945
165.5,0.011476327548644196,0.01225463865782854,-0.023721148907328467
166.0,0.008233218816785027,0.009011529925969371,-0.02347388527729349
166.5,0.006452497432516704,0.007230808541701048,-0.02222485769216325
167.0,0.004801949566149934,0.005580260675334278,-0.02122989383657959
167.5,0.003092243873893672,0.003870554983078016,-0.020616778111451496
168.0,0.001468349515629473,0.002246660624813817,-0.020190819270092995
168.5,0.0010462574828425835,0.0018245685920269276,-0.01879561292856752
169.0,0.0007900627899949693,0.0015683738991793135,-0.017433939577934602
169.5,0.000775104706123224,0.0015534158153075683,-0.016003049010376136
170.0,0.0007676408261522747,0.0015459519353366188,-0.014713781964066386
170.5,0.0005775381245043314,0.0013558492336886755,-0.013736969503345318
171.0,-0.00011147423677375828,0.0006668368724105859,-0.013372496486853817
171.5,-0.0002738653386832749,0.0005044457705010693,-0.012580847307821483
172.0,-0.0003830484911923332,0.00039526261799201093,-0.01182346238657117
172.5,-0.00041608660379930686,0.0003622245053850373,-0.011067147247226801
173.0,-0.0003499017399136896,0.0004284093692706545,-0.010280056780987406
173.5,-0.00014373726299145997,0.0006345738461928841,-0.009413988448627574
174.0,-0.0007783111091843441,0.0,-0.009443413707808903
174.5,-7.167416159183081e-05,0.0007066369475925133,-0.008181255907185846
175.0,-0.00014456405812159352,0.0006337470510627506,-0.0077442011169154045
175.5,4.216941138415496e-05,0.0008204805205684991,-0.007090114611646279
176.0,0.00015118897364886137,0.0009295000828332056,-0.006554437042770944
176.5,0.0007339428372903489,0.0015122539464746932,-0.005584955753523812
177.0,0.001162290270616365,0.0019406013798007092,-0.004810237664368151
177.5,0.0013929365883892954,0.0021712476975736398,-0.004275254104027029
178.0,0.001740271188337499,0.002518582297521843,-0.0036685873606984946
178.5,0.002203737886658976,0.0029820489958433203,-0.0029950697699684
179.0,0.002787801907408127,0.003566113016592471,-0.0022557688199583517
179.5,0.0035268753803634114,0.0043051864895477555,-0.0014229339058190642
180.0,0.003419658546818704,0.004197969656003048,-0.0015054272580122246
180.5,0.004312650561158482,0.005090961670342826,-0.0006648702151706518
181.0,0.0050710828401924635,0.005849393949376808,-4.424555983966686e-05
181.5,0.005322637702677228,0.006100948811861572,-2.359846233492436e-05
182.0,0.006041858139945588,0.006820169249129932,0.0003650506859051517
182.5,0.006610826955548065,0.0073891380647324095,0.0004991259102877909
183.0,0.0070874112479669136,0.007865722357151259,0.000434495890954875
183.5,0.008105865806515199,0.008884176915699543,0.0008067892709380901
184.0,0.008537766244298618,0.009316077353482962,0.0004929301084383424
184.5,0.009974330233531392,0.010752641342715736,0.0010938856012576558
185.0,0.010873239281805254,0.011651550390989598,0.001081678907698367
185.5,0.011816587496181807,0.012594898605366152,0.0010572477479919313
186.0,0.012365516181354104,0.013143827290538448,0.0006046821297018175
186.5,0.01274210355749858,0.013520414666682924,-2.7590082458501045e-05
187.0,0.01359411710654473,0.014372428215729075,-0.0001630356653335996
187.5,0.01423630904637814,0.015014620155562484,-0.00045693309589472236
188.0,0.01558153432982264,0.016359845439006985,3.338096524319045e-05
188.5,0.01618564766994536,0.016963958779129706,-0.00010801562675531035
189.0,0.016684164174833458,0.0174624752840178,-0.00022035388679353396
189.5,0.016782200596575897,0.017560511705760243,-0.0005774773052974295
190.0,0.016664235986018912,0.017442547095203258,-0.0009790985497330762
190.5,0.01687488439952796,0.017653195508712305,-0.000870746895349224
191.0,0.016221561472867588,0.016999872582051934,-0.00144147948421788
191.5,0.01720405605670407,0.017982367165888413,-0.00019432811758303067
192.0,0.017423519675044085,0.018201830784228427,0.0004630198757162862
192.5,0.01652591247278542,0.017304223581969765,0.0001623080534325777
193.0,0.016333636303435223,0.017111947412619566,0.0007072366776753394
193.5,0.016035252781743437,0.01681356389092778,0.0012642524808879462
194.0,0.015041617996159716,0.01581992910534406,0.001219853383384267
194.5,0.013945069152238363,0.014723380261422708,0.0011409626889669622
195.0,0.012031213425614206,0.01280952453479855,0.0002878488584205814
195.5,0.010436246563428621,0.011214557672612965,-0.00022754392366049377
196.0,0.009504637247317772,0.010282948356502116,-8.306525281960749e-05
196.5,0.00818923167985051,0.008967542789034853,-0.0003456032917247935
197.0,0.0072029597614111165,0.00798127087059546,-0.000318935939290289
197.5,0.0057012094532207765,0.006479520562405121,-0.0008611185344364215
198.0,0.0048471435496993485,0.005625454658883693,-0.0008191175128834122
198.5,0.004163875422978328,0.004942186532162672,-0.0006767472924726296
199.0,0.0033687217880294935,0.004147032897213838,-0.0007206599426474499
199.5,0.0024913905727692543,0.0032697016819535985,-0.0009224943819907058
200.0,0.002579308213264959,0.003357619322449303,-0.00023394588901000943
200.5,0.001746146370056016,0.00252445747924036,-0.0005386637628678951
201.0,0.001816375494468374,0.0025946866036527182,-8.122014875164632e-06
201.5,0.0015238471075578,0.002302158216742144,9.656094597678376e-05
202.0,0.0012611410959178036,0.0020394522051021477,0.00017360620608421976
202.5,0.0009614651031518456,0.0017397762123361896,0.0001621594117907606
203.0,0.001275459341585911,0.0020537704507702552,0.000718835647170628
203.5,0.0016468479900348836,0.002425159099219228,0.0012931662334519432
204.0,0.001439846710779304,0.0022181578199636483,0.0012548545072095913
204.5,0.0018128619414750735,0.0025911730506594176,0.0017673713165920547
205.0,0.001564540297243762,0.0023428514064281064,0.0016339421291612962
205.5,0.0014551007907537567,0.002233411899938101,0.0016188512868105338
206.0,0.001801594857040396,0.0025799059662247404,0.0020427011333966974
206.5,0.0019048005194045913,0.0026831116285889354,0.0022093254807556283
207.0,0.0017539300228454765,0.0025322411320298204,0.0021105305825039836
207.5,0.001558197378497837,0.0023365084876821813,0.0019577048009302924
208.0,0.0018410360721142288,0.0026193471812985727,0.0022760829326839583
208.5,0.0018126195153828615,0.0025909306245672056,0.0022773144411602168
209.0,0.0014830964224824405,0.0022614075316667844,0.0019727453289640528
209.5,0.001459211986499112,0.002237523095683456,0.0019700828465078466
210.0,0.0018588245170225903,0.0026371356262069345,0.002387951660883546
210.5,0.001683587744450652,0.002461898853634996,0.0022286111628192803
211.0,0.0018308164157100869,0.002609127524894431,0.0023898513937266074
211.5,0.0011121238483989915,0.0018904349575833356,0.0016836563917333948
212.0,0.0017594921847984425,0.002537803293982787,0.0023422960115628633
212.5,0.0012472498926403247,0.002025561001824669,0.0018403211852903582
213.0,0.0009504266886618176,0.0017287377978461617,0.0015529332696008755
213.5,0.0012463697406014413,0.002024680849785785,0.0018576118126246346
214.0,0.0012495036518923887,0.002027814761076733,0.0018688837015136076
214.5,0.001318098477034464,0.0020964095862188083,0.001945098357495096
215.0,0.0012724590996859623,0.0020507702088703064,0.0019066226816457771
215.5,0.0014274548199271664,0.0022057659291115105,0.002068374918110417
216.0,0.0016848791145616868,0.002463190223746031,0.0023321876687486857
216.5,0.001493913552930472,0.002272224662114816,0.002147274265065383
217.0,0.001987738443737128,0.002766049552921472,0.00264684125447355
217.5,0.0019191525145356488,0.002697463623719993,0.0025837094478143845
218.0,0.0019732011130965737,0.002751512222280918,0.0026429431319589633
218.5,0.0018054030920365604,0.0025837142012209045,0.002480077698125648
219.0,0.001654925835056938,0.002433236944241282,0.0023342952129269136
219.5,0.0018552569323207688,0.002633568041505113,0.0025390964919186397
220.0,0.0013207446967714964,0.0020990558059558405,0.002008841906786704
