wavelength,absorbance,absorbance_bk,residual_3gauss
117.0,0.7143540260351556,0.7175192166096658,-0.0035632735128322546
117.5,0.7096936428608536,0.7128588334353637,-0.002979010420995909
118.0,0.7052705510606254,0.7084357416351356,-0.0012980639979881525
118.5,0.701354246652606,0.7045194372271162,0.001722314313379103
119.0,0.6912466194835002,0.6944118100580103,-0.0006467834831928032
119.5,0.6865101757605163,0.6896753663350265,0.003122218015984224
120.0,0.6757321128826642,0.6788973034571744,0.0015773421288082234
120.5,0.6671303418377085,0.6702955324122186,0.002892939277135409
121.0,0.6558658901324178,0.659031080706928,0.0021819096356550105
121.5,0.6457419613838699,0.64890715195838,0.0031945426901051066
122.0,0.6338911914919437,0.6370563820664539,0.003005513072944277
122.5,0.6194292523928681,0.6225944429673782,0.0006671859337803454
123.0,0.607972001679218,0.6111371922537282,0.0017264359206051738
123.5,0.5934049170493683,0.5965701076238784,-6.271213934261333e-06
124.0,0.5794173452297186,0.5825825358042287,-0.0009229897432568857
124.5,0.5649688328077412,0.5681340233822514,-0.0021523098798221785
125.0,0.5513439515272002,0.5545091421017103,-0.0025048394758827586
125.5,0.537480395506382,0.5406455860808922,-0.003145341529217527
126.0,0.5241821325082088,0.5273473230827189,-0.0033797069449725825
126.5,0.5118731024883918,0.5150382930629019,-0.0029012256026716976
127.0,0.49895427361195527,0.5021194641864655,-0.003433297584364059
127.5,0.48797740045429344,0.4911425910288036,-0.002555189276600811
128.0,0.47762840803795525,0.4807935986124654,-0.0017178596804884871
128.5,0.4677946493116962,0.4709598398862063,-0.0011755605941534686
129.0,0.45980735349099267,0.4629725440655028,0.00025814996215606234
129.5,0.4528583622557175,0.45602355283022766,0.0016291121280658238
130.0,0.4463563135691065,0.44952150414361663,0.0022011671625818963
130.5,0.4415424583844079,0.44470764895891807,0.003074848265023744
131.0,0.43730505128996927,0.4404702418644794,0.003005083596360314
131.5,0.4351473902789057,0.43831258085341585,0.0033729459925953
132.0,0.43418303668205754,0.4373482272565677,0.003184913273129031
132.5,0.4350269410326541,0.43819213160716425,0.0029682699796881873
133.0,0.4370457686807693,0.4402109592552794,0.0020258216646821814
133.5,0.44061167838951554,0.4437768689640257,0.0006940261441186202
134.0,0.4465668815576274,0.44973207213213756,-0.0001883021556223219
134.5,0.4536726681054677,0.45683785867997784,-0.0018272176982262467
135.0,0.4634028678576711,0.46656805843218124,-0.002677029820116139
135.5,0.47479944068012125,0.4779646312546314,-0.0035823574052425977
136.0,0.4880520091154638,0.49121719968997396,-0.004197232324642253
136.5,0.5034925106127409,0.5066577011872511,-0.0039902503879953866
137.0,0.5211414663286205,0.5243066569031306,-0.0026994202869022876
137.5,0.5403882722558048,0.5435534628303149,-0.0006544139853403852
138.0,0.5598965693841913,0.5630617599587014,0.0011247758577233036
138.2,0.5656838125807762,0.5688490031552863,-0.0002505579379192824
138.4,0.5739377679015647,0.5771029584760748,0.0008348920262799542
138.6,0.5813522699788202,0.5845174605533303,0.00109876649077012
138.8,0.5884939752638925,0.5916591658384026,0.0011319523278929822
139.0,0.595818876735897,0.5989840673104071,0.0014150056957371593
139.2,0.6033242788031387,0.6064894693776488,0.0019700307489609603
139.4,0.6107770006406291,0.6139421912151393,0.002588782520618449
139.6,0.6171434831240521,0.6203086736985622,0.002262669543543594
139.8,0.6236715917724786,0.6268367823469887,0.0022644490682182106
140.0,0.6299303098390971,0.6330955004136073,0.002187809496276838
140.2,0.6353577993581312,0.6385229899326413,0.0014953183515886703
140.4,0.6410459523625505,0.6442111429370606,0.0013028585499351708
140.6,0.6459281774461381,0.6490933680206482,0.0005672987184295319
140.8,0.6506815058146139,0.6538466963891241,-1.1517683232153964e-05
141.0,0.6553025022100163,0.6584676927845264,-0.00041497841968640703
141.2,0.659458882506383,0.6626240730808931,-0.0009542012542503864
141.4,0.6632527643860427,0.6664179549605529,-0.0015068983431698602
141.6,0.6665009747077127,0.6696661652822229,-0.0022371819264271897
141.8,0.6705295955757011,0.6736947861502113,-0.0018011285713003256
142.0,0.6727970379640272,0.6759622285385374,-0.0027238123597117525
142.2,0.6766092598956746,0.6797744504701847,-0.0016841892453419716
142.4,0.6785556693759093,0.6817208599504194,-0.00207929159123732
142.6,0.6805520296831652,0.6837172202576753,-0.0019814144801437727
142.8,0.682181815788689,0.6853470063631991,-0.001796844211144899
143.0,0.683234509077841,0.6863996996523511,-0.0017276409870568
143.2,0.6846726214522748,0.687837812026785,-0.0008046838875135354
143.4,0.6856269077553202,0.6887920983298303,0.0001074816386897881
143.6,0.6848029701624648,0.687968160736975,-0.0002828017796207005
143.8,0.6847329753450164,0.6878981659195266,0.000557374560081203
144.0,0.6827268628211433,0.6858920533956534,-6.333382661782849e-05
144.2,0.6817759809425651,0.6849411715170752,0.0008430960683663002
144.4,0.6789204090564898,0.6820855996309999,0.00031137461180208437
144.6,0.6763005255071737,0.6794657160816838,0.0004744789007912198
144.8,0.6735764861566811,0.6767416767311912,0.0009831569085909653
145.0,0.6696628910677467,0.6728280816422568,0.0007406345579249463
145.2,0.6656713000675156,0.6688364906420258,0.0008451868578404076
145.4,0.662312510752844,0.6654777013273542,0.0019924869737164563
145.6,0.657430775403382,0.6605959659778922,0.0020099098815384853
145.8,0.6523648176744112,0.6555300082489214,0.0022176515233280902
146.0,0.6466278529660212,0.6497930435405314,0.0021088672494389282
146.2,0.6406695458787747,0.6438347364532848,0.0021117626759615815
146.4,0.6344772416722788,0.637642432246789,0.002190973406364094
146.6,0.6273529765853129,0.630518167159823,0.0016247378105429533
146.8,0.6200244403008799,0.62318963087539,0.001116035270131488
147.0,0.6134361149533595,0.6166013055278696,0.0015839131952920527
147.2,0.6049454652931794,0.6081106558676895,0.00035987611384769025
147.4,0.5972138572488171,0.6003790478233273,7.901253357023297e-05
147.6,0.5891134100578383,0.5922786006323485,-0.0004129370116072728
147.8,0.5799133920798643,0.5830785826543744,-0.0018729625945947959
148.0,0.5718902806957049,0.5750554712702151,-0.002050499982521825
148.2,0.5634545227595819,0.566619713334092,-0.002560444077253088
148.4,0.5551683394889756,0.5583335300634857,-0.002865119354362622
148.6,0.5475623435061657,0.5507275340806759,-0.0024574422527564588
148.8,0.5397110085071932,0.5428761990817034,-0.0022852378089976977
149.0,0.5324513392520215,0.5356165298265316,-0.001532365677967662
149.2,0.5248521667598247,0.5280173573343349,-0.0011492335143316046
149.4,0.517861525436442,0.5210267160109522,-0.00020524382271502883
149.6,0.5101595485524089,0.513324739126919,-3.5740619721003064e-05
149.8,0.5031227012372975,0.5062878918118077,0.0007223606219881606
150.0,0.4947989750880271,0.49796416566253726,0.00010588138838663053
150.5,0.47707531084404864,0.4802405014185588,0.0012142375071761968
151.0,0.4580977655286712,0.46126295610318135,0.00039793430342549563
151.5,0.4401637370505517,0.4433289276250618,-2.7271893498437283e-05
152.0,0.42224496256349087,0.425410153138001,-0.0009859517464003154
152.5,0.40575407397113966,0.4089192645456498,-0.0008904151663340354
153.0,0.39087724637574256,0.3940424369502527,0.0006716104271854983
153.5,0.374820002171472,0.37798519274598213,0.00115775866710488
154.0,0.35863386511765266,0.3617990556921628,0.001870196280287395
154.5,0.34076152611371013,0.3439267166882203,0.0014734477542290292
155.0,0.32265102216090774,0.3258162127354179,0.0015840362498420468
155.5,0.3027297732556421,0.30589496383015224,0.0007251975249729092
156.0,0.2821467635272326,0.28531195410174276,5.6821254504624275e-05
156.5,0.2608710368459376,0.26403622742044774,-0.0005301144570643568
157.0,0.23915666807225508,0.24232185864676525,-0.000944259247884216
157.5,0.21836281927315748,0.22152800984766766,-6.18618142683991e-05
158.0,0.1967196776488677,0.19988486822337787,5.7290041045654494e-05
158.5,0.17482178434202109,0.17798697491653126,-0.0003146235505127326
159.0,0.153229503742158,0.15639469431666816,-0.000948146865859173
159.5,0.13341085468827843,0.1365760452627886,-0.000691614454422923
160.0,0.1133910425292795,0.11655623310378968,-0.0018013652659012447
160.5,0.09541527388863169,0.09858046446314186,-0.002263134196228797
161.0,0.0801064441488184,0.08327163472332857,-0.0016240048005570634
161.5,0.06575476155244382,0.068919952126954,-0.001698157663059821
162.0,0.05390233900332687,0.05706752957783704,-0.0009830587672163063
162.5,0.0434401069044052,0.046605297478915376,-0.0005679110208272817
163.0,0.035363538889746124,0.0385287294642563,0.0006132770051289066
163.5,0.028723787040801772,0.031888977615311946,0.0017219036188046086
164.0,0.023494327552271384,0.026659518126781558,0.002869648709244863
164.5,0.01917201075353825,0.022337201328048423,0.0037080262874335766
165.0,0.015832230244578086,0.01899742081908826,0.0044732027366996725
165.5,0.012987414811232076,0.016152605385742248,0.004835866923763836
166.0,0.010521342049080012,0.013686532623590184,0.00482894482552146
166.5,0.009011981305346074,0.012177171879856246,0.005165906904808525
167.0,0.008413814219963437,0.011579004794473609,0.005920460915893174
167.5,0.006832620029105079,0.009997810603615251,0.005300331007366252
168.0,0.005462661650404356,0.008627852224914528,0.004584705703312624
168.5,0.004971863337752036,0.008137053912262208,0.0045105789843573945
169.0,0.004525255555827864,0.007690446130338037,0.004297920731434533
169.5,0.004923494721260734,0.008088685295770906,0.004790197473729281
170.0,0.004891662927450248,0.00805685350196042,0.004745226485152963
170.5,0.004449600313338712,0.0076147908878488844,0.004207459559426972
171.0,0.0035996505691484088,0.006764841143658581,0.0031974799558062957
171.5,0.0028391945262723323,0.006004385100782505,0.0022260391012631957
172.0,0.0029163013647585815,0.006081491939268754,0.0020509506226330833
172.5,0.0029928211314550783,0.006158011705965251,0.0018411780493776996
173.0,0.0030294414944698807,0.006194632068980053,0.0015626662483712965
173.5,0.002822096766420139,0.005987287340930311,0.00101533836940445
174.0,0.0021295768355179766,0.005294767410028149,-3.885927028410806e-05
174.5,0.0023845601372788064,0.005549750711788979,-0.00016460790578908154
175.0,0.0025757219455089246,0.005740912520019097,-0.0003708833735626173
175.5,0.0024965745953661085,0.005661765169876281,-0.0008619598771668424
176.0,0.0028032233944404097,0.005968413968950582,-0.00097954860331369
176.5,0.002350241828083451,0.005515432402593624,-0.0018668538145382293
177.0,0.0030125904679387415,0.006177781042448914,-0.0016466118479584457
177.5,0.0027651711643023936,0.005930361738812566,-0.00234151411867329
178.0,0.003441338580045761,0.006606529154555934,-0.0021156868916102686
178.5,0.0035722480115591743,0.006737438586069347,-0.0024353452526153204
179.0,0.0036939985842975834,0.006859189158807756,-0.002761659656294481
179.5,0.004299773903573434,0.007464964478083607,-0.0025986311716745137
180.0,0.0040722064480760494,0.007237397022586222,-0.003260747820781283
180.5,0.005002357767121153,0.008167548341631326,-0.00275402893354176
181.0,0.005305769495379867,0.00847096006989004,-0.002860001670616433
181.5,0.005339969487529581,0.008505160062039753,-0.0032182246795920827
182.0,0.00587534154739553,0.009040532121905703,-0.00305544973202186
182.5,0.006069102598768798,0.00923429317327897,-0.00321167684288496
183.0,0.007072242732022819,0.010237433306532992,-0.0025332468005047765
183.5,0.007386634168328806,0.01055182474283898,-0.002515764436883219
184.0,0.007966479656279024,0.011131670230789197,-0.0022026815074309685
184.5,0.008642338427454098,0.01180752900196427,-0.001761300455792543
185.0,0.009283440098445731,0.012448630672955903,-0.0013204881057461097
185.5,0.010463093849652,0.013628284424162172,-0.00030529141666410693
186.0,0.010989465378391057,0.014154655952901229,9.381768045437812e-05
186.5,0.011129939726503366,0.014295130301013538,0.00014528689408119418
187.0,0.011432303975070557,0.014597494549580729,0.00039765198329221735
187.5,0.01175896345199372,0.014924154026503891,0.0007137428996063858
188.0,0.012689967672909391,0.015855158247419565,0.0016737040830801797
188.5,0.013485939712206652,0.016651130286716824,0.0025379227259822758
189.0,0.0139006110794827,0.017065801653992872,0.0030595671068230808
189.5,0.013776630256424297,0.01694182083093447,0.003080403087574993
190.0,0.013449897590051748,0.01661508816456192,0.0029351413200010886
190.5,0.013807927894192927,0.0169731184687031,0.003509816278941114
191.0,0.012856870642232319,0.016022061216742493,0.0028088266934903523
191.5,0.01284881956651028,0.016014010141020454,0.003082268809023521
192.0,0.01317280740881338,0.016337997983323554,0.0037169577811841676
192.5,0.01320806249470148,0.016373253069211655,0.004089713381146899
193.0,0.012632026682638216,0.015797217257148388,0.003875409031387911
193.5,0.012570495363158605,0.01573568593766878,0.004197144289703669
194.0,0.010755616525798064,0.013920807100308236,0.002784277228821727
194.5,0.010018396332463993,0.013183586906974165,0.002464963579882065
195.0,0.008295954611941473,0.011461145186451645,0.0011734454965542929
195.5,0.0066285103099813164,0.00979370088449149,-5.2930559404671534e-05
196.0,0.006075385908568551,0.009240576483078723,-0.00015767829610366726
196.5,0.004860271720341657,0.00802546229485183,-0.0009198779809063279
197.0,0.003531807217393436,0.006696997791903608,-0.0017935679831735697
197.5,0.0025401519319919615,0.005705342506502134,-0.0023311492747554157
198.0,0.0017991205610529471,0.00496431113556312,-0.00262122853438616
198.5,0.0008263968911787101,0.003991587465688883,-0.003148385450250886
199.0,0.0004936431159710757,0.0036588336904812484,-0.0030430477920191895
199.5,-8.527308224583245e-05,0.00307991749226434,-0.003193251955672851
200.0,7.59234467715057e-05,0.003241114021281678,-0.002614431858135376
200.5,-0.0008083709761915987,0.002356819598318574,-0.0030936993040474176
201.0,-0.0008641659844410602,0.002301024590069112,-0.0027583682667787646
201.5,-0.0009399871712405085,0.002225203403269664,-0.0024580649781422233
202.0,-0.0014571162146987827,0.0017080743598113898,-0.002614970860965011
202.5,-0.0017615245666174585,0.001403666007892714,-0.002575761509112393
203.0,-0.0015765891130239571,0.0015886014614862154,-0.002064329853402499
203.5,-0.0012977786057084767,0.0018674119688016958,-0.0014764820224013654
204.0,-0.001890539863210068,0.0012746507113001045,-0.0017778345929805974
204.5,-0.0014532511447151847,0.0017119394297949878,-0.0010667803248213432
205.0,-0.0017738559624759544,0.0013913346120342182,-0.001131135336523492
205.5,-0.001742046617714625,0.0014231439567955475,-0.0008603367080999345
206.0,-0.0015846061376527608,0.0015805844368574117,-0.0004807989007634163
206.5,-0.001351958780700896,0.0018132317938092766,-4.2478892637231366e-05
207.0,-0.0017300003042768088,0.0014351902702333637,-0.00023072097877221845
207.5,-0.0016519528333603707,0.0015132377411498019,2.1874147099515797e-05
208.0,-0.00166380410549883,0.0015013864690113425,0.00016999644643985986
208.5,-0.0013254063364081315,0.001839784238102041,0.0006545146454246657
209.0,-0.001847924998688852,0.0013172655758213205,0.0002650152423307381
209.5,-0.0022849605087912374,0.0008802300657189351,-5.133047677882761e-05
210.0,-0.002187370366901257,0.0009778202076089156,0.00015540111855636633
210.5,-0.002250237943849668,0.0009149526306605044,0.00019090795713806404
211.0,-0.0021031806114055096,0.001062009963104663,0.0004263459466886722
211.5,-0.0028848245405585986,0.00028036603395157397,-0.00027615294041243054
212.0,-0.0021254251791257422,0.0010397653953844303,0.000553892795589317
212.5,-0.0029527896823664584,0.00021240089214371411,-0.0002106132862337748
213.0,-0.0024530183232276373,0.0007121722512825352,0.00034490895856171004
213.5,-0.0026474137532741214,0.0005177768212360511,0.00019980384878180637
214.0,-0.0027651091654347054,0.0004000814090754671,0.00012554940937892955
214.5,-0.002682038677149579,0.0004831518973605936,0.00024678545210521916
215.0,-0.0026172172646686327,0.0005479733098415398,0.00034503279502054473
215.5,-0.0026749302429134344,0.0004902603315967381,0.0003165035454133976
216.0,-0.0025629426029317045,0.000602247971578468,0.0004538920532270705
216.5,-0.0023497084953151685,0.000815482079195004,0.0006891661675386622
217.0,-0.0026929365376472105,0.000472254036862962,0.0003650030421148904
217.5,-0.002777220263262239,0.0003879703112479333,0.0002971601011309571
218.0,-0.0025418296407492304,0.0006233609337609422,0.000546685169112749
218.5,-0.0029569742451591,0.00020821632935107267,0.00014365512336409243
219.0,-0.0031651905745101725,0.0,-5.420947938349546e-05
219.5,-0.0028932858948353614,0.0002719046796748111,0.00022651376628299888
220.0,-0.003055855154146348,0.00010933542036382438,7.14342438695243e-05
