wavelength,absorbance,absorbance_bk,residual_3gauss
117.0,0.9887011346690736,0.9857826689177009,-0.019200788521467782
117.5,0.9923998016904912,0.9894813359391186,-0.0051830428331191
118.0,0.9887318921029491,0.9858134263515764,0.0024193696729682967
118.5,0.968702186665848,0.9657837209144753,-0.005428483469996026
119.0,0.9563882251337699,0.9534697593823972,-0.004692703570633006
119.5,0.9511309231721667,0.9482124574207941,0.003919894832317472
120.0,0.9410559626820778,0.9381374969307051,0.008482948944256608
120.5,0.9279070118251952,0.9249885460738225,0.01068346813047416
121.0,0.9117477104388787,0.908829244687506,0.010523436366626893
121.5,0.8953372427037554,0.8924187769523827,0.010694911528626116
122.0,0.8768722120426128,0.8739537462912401,0.009321332599715348
122.5,0.8591720435809768,0.8562535778296041,0.009142260683453252
123.0,0.8389003876142637,0.835981921862891,0.006734033738217349
123.5,0.8177995474645469,0.8148810817131742,0.0037433723465388757
124.0,0.797433865892542,0.7945154001411693,0.001629893631314494
124.5,0.7771272129954588,0.7742087472440862,-0.00039729033555224724
125.0,0.7549169748263198,0.7519985090749471,-0.0044264453078232124
125.5,0.7359176636970812,0.7329991979457086,-0.005480380307663957
126.0,0.7168220933447212,0.7139036275933486,-0.007015892350443309
126.5,0.6992930779085217,0.696374612157149,-0.007532449246571926
127.0,0.682353660113842,0.6794351943624694,-0.008182012360725577
127.5,0.6669431889913283,0.6640247232399556,-0.00821257852596513
128.0,0.6534957117959738,0.6505772460446011,-0.007388872188949458
128.5,0.6423201095226828,0.6394016437713101,-0.005610655589928681
129.0,0.6323856156180433,0.6294671498666706,-0.0041249225092167
129.5,0.6241493476531785,0.6212308819018059,-0.002695266405254415
130.0,0.6181404444480374,0.6152219786966647,-0.0010137747908213202
130.5,0.614740545013376,0.6118220792620034,0.0010843098117800931
131.0,0.6126832144811603,0.6097647487297876,0.002125750020846695
131.5,0.61233689437383,0.6094184286224573,0.0022888063921898683
132.0,0.6144047268530795,0.6114862611017068,0.0021102924148037605
132.5,0.6198639365081811,0.6169454707568084,0.002432697265070005
133.0,0.6274317492782657,0.6245132835268931,0.0018781193937313923
133.5,0.6376431319525889,0.6347246662012163,0.0009340023523078944
134.0,0.6505861850135684,0.6476677192621957,-0.00030383491158270104
134.5,0.6661256011689046,0.663207135417532,-0.001900838786656478
135.0,0.6843326274943137,0.681414161742941,-0.003647994777979835
135.5,0.705291368750017,0.7023729029986443,-0.0052513000781934105
136.0,0.7294269714672985,0.7265085057159258,-0.0060012805951125126
136.5,0.7563807414309408,0.7534622756795681,-0.005897844107115469
137.0,0.7856473881014515,0.7827289223500788,-0.005015556334483362
137.5,0.8176974202753309,0.8147789545239582,-0.0023865104889431166
138.0,0.8504890653307334,0.8475705995793608,0.0005034910849115448
138.2,0.8637984754031274,0.8608800096517547,0.0018515667423244508
138.4,0.8769801144403787,0.874061648689006,0.0031315257871750157
138.6,0.8903878975547879,0.8874694318034152,0.0047383714550846
138.8,0.9025688129185293,0.8996503471671566,0.005260738335715831
139.0,0.9153434960680751,0.9124250303167024,0.006561291939722325
139.2,0.9270387051081753,0.9241202393568027,0.007009021393750148
139.4,0.9379553182089011,0.9350368524575284,0.006947047497193992
139.6,0.9488153735515683,0.9458969078001956,0.007139467207268102
139.8,0.9590855922904856,0.956167126539113,0.007094676096637165
140.0,0.9686946263628528,0.9657761606114801,0.0067824116554831
140.2,0.9775263808678263,0.9746079151164536,0.006126868256114526
140.4,0.985578875566108,0.9826604098147353,0.0051653494815231404
140.6,0.9921662968283255,0.9892478310769528,0.003250110344216517
140.8,0.9997399648139288,0.9968214990625561,0.0028691154182983736
141.0,1.0044972353352828,1.00157876958391,0.000254733619102554
141.2,1.0101513543336793,1.0072328885823065,-0.0008466111298213175
141.4,1.01434822138818,1.0114297556368073,-0.002757875579598279
141.6,1.0187993379526283,1.0158808722012556,-0.003738642127658842
141.8,1.0223513049743567,1.0194328392229839,-0.004915807039562958
142.0,1.0256054317558188,1.022686966004446,-0.005664148660366575
142.2,1.0291013675741982,1.0261829018228255,-0.0054228626917107725
142.4,1.0308174866237447,1.027899020872372,-0.006195332556963695
142.6,1.0326755967123435,1.0297571309609708,-0.006044563011584847
142.8,1.034647442187972,1.0317289764365993,-0.004986805119581161
143.0,1.0347057216842628,1.03178725593289,-0.005040650618191256
143.2,1.034866448691265,1.0319479829398923,-0.004184766298927167
143.4,1.033548742694874,1.0306302769435012,-0.003998179327640683
143.6,1.0321837032491727,1.0292652374978,-0.0030514598479098876
143.8,1.0300024778528871,1.0270840121015143,-0.002118688759407128
144.0,1.026813318756084,1.0238948530047112,-0.0014004143759511756
144.2,1.0228270855101425,1.0199086197587697,-0.0006981400643550906
144.4,1.0179290198612685,1.0150105541098957,-0.00014251527855280166
144.6,1.0118933594645383,1.0089748937131655,2.133735361820044e-05
144.8,1.0057606909649854,1.0028422252136127,0.0008112601626175664
145.0,0.9986069995715322,0.9956885338201595,0.0012772214763181466
145.2,0.9911599830366403,0.9882415172852677,0.002117767854242447
145.4,0.9827301172217056,0.9798116514703329,0.0026112548605214947
145.6,0.9735892921708528,0.9706708264194801,0.0029946752246282626
145.8,0.9645870891024293,0.9616686233510566,0.004080154462910546
146.0,0.9547244527195072,0.9518059869681346,0.0048288677383492296
146.2,0.9435881657032344,0.9406696999518618,0.004785783887538919
146.4,0.9324157660018068,0.9294973002504341,0.005144875960432671
146.6,0.9198895860107712,0.9169711202593985,0.004543475750948045
146.8,0.9073830818060926,0.90446461605472,0.004308938497715409
147.0,0.8945203660265119,0.8916019002751392,0.0040185289957263
147.2,0.8805373726949491,0.8776189069435765,0.0028609546763106453
147.4,0.8667083897331048,0.8637899239817322,0.0020632783043533776
147.6,0.8521568850417822,0.8492384192904096,0.0007021326988152499
147.8,0.8381468155247993,0.8352283497734266,-4.576953360757585e-06
148.0,0.8230000893726083,0.8200816236212356,-0.0017798169940786979
148.2,0.8093147859432952,0.8063963201919225,-0.0020688154582464424
148.4,0.7957928664083386,0.7928744006569659,-0.002210969958645559
148.6,0.7827586541628626,0.7798401884114899,-0.0019209990818086498
148.8,0.7698951148886065,0.7669766491372338,-0.0015523123000507066
149.0,0.7581680968024728,0.7552496310511001,-0.00017244278933059576
149.2,0.745812699723536,0.7428942339721634,0.00042362060984046934
149.4,0.7334780167627343,0.7305595510113616,0.0008584413621629539
149.6,0.7220085967484131,0.7190901309970404,0.001953826752098431
149.8,0.7095392921065339,0.7066208263551612,0.001825863488443713
150.0,0.6975736403661889,0.6946551746148162,0.0019634418159010236
150.5,0.6677513286128199,0.6648328628614473,0.0012994634402375693
151.0,0.6389333244370359,0.6360148586856632,5.076934123326993e-05
151.5,0.6109016010319117,0.607983135280539,-0.001888430878592473
152.0,0.5844859449004115,0.5815674791490388,-0.00343461975560444
152.5,0.560082079022539,0.5571636132711664,-0.0038268613947982644
153.0,0.5371784711068849,0.5342600053555122,-0.0031397434129778468
153.5,0.5145320837178733,0.5116136179665006,-0.002153654503363467
154.0,0.4909983083837952,0.48807984263242254,-0.0015728599837162571
154.5,0.46627415399072625,0.4633556882393536,-0.0013276447544595116
155.0,0.4407988954501333,0.4378804296987606,-0.0007118437861582949
155.5,0.4141999213545827,0.41128145560321006,3.5714079598736514e-05
156.0,0.3857281912287573,0.3828097254773846,0.00015278829293768892
156.5,0.35663446957898365,0.353716003827611,0.0007305129286608869
157.0,0.32786423556905914,0.32494576981768647,0.002422675662245244
157.5,0.2983136159740034,0.29539515022263074,0.0037277242354629703
158.0,0.2684525486846032,0.26553408293323055,0.004646412340633288
158.5,0.2383687503284745,0.2354502845771018,0.004764647179713449
159.0,0.20864324531747455,0.20572477956610186,0.004168105506276831
159.5,0.1793406250206107,0.17642215926923802,0.002467940105054356
160.0,0.15158916669522887,0.14867070094385618,0.00040963620883768814
160.5,0.12593771367555584,0.12301924792418314,-0.0017500870562549564
161.0,0.10366217404151427,0.10074370829014158,-0.0029263013357628265
161.5,0.08363971484088646,0.08072124908951377,-0.004330448136823414
162.0,0.06661297568624067,0.06369450993486797,-0.00521292559300017
162.5,0.05263853919287492,0.04972007344150223,-0.005427580672044359
163.0,0.0413592181118842,0.038440752360511504,-0.00517636360455305
163.5,0.03264818398761387,0.029729718236241178,-0.004383925784529372
164.0,0.025645009159785327,0.022726543408412635,-0.0036801371065135653
164.5,0.019994212483941155,0.017075746732568464,-0.003178393785402328
165.0,0.01586478947695902,0.01294632372558633,-0.0024701951434270945
165.5,0.01258815777616678,0.009669692024794087,-0.0019980191348806867
166.0,0.010233038655825288,0.007314572904452596,-0.001487879026647973
166.5,0.008187117137446857,0.005268651386074165,-0.001371965686942379
167.0,0.006816161527515471,0.003897695776142779,-0.0011311702725844506
167.5,0.006020948897375713,0.003102483146003021,-0.0007377330221607415
168.0,0.005365959669500884,0.0024474939181281926,-0.0005246688826124031
168.5,0.004650692515621608,0.0017322267642489158,-0.0006116841058026496
169.0,0.004304475603102887,0.0013860098517301956,-0.0005071809270712456
169.5,0.003746370547583904,0.0008279047962112124,-0.0007451153878326828
170.0,0.003435042081873257,0.0005165763305005652,-0.0008320844628486993
170.5,0.0030943629183687164,0.0001758971669960246,-0.0010190223121747878
171.0,0.0030178916827281804,9.94259313554886e-05,-0.000994436599467821
171.5,0.0031879955705619166,0.0002695298191892248,-0.0007634231447662104
172.0,0.003164482867177076,0.00024601711580438416,-0.00075756511771144
172.5,0.002918465751372692,0.0,-0.0009999461692606487
173.0,0.0029283205548467296,9.85480347403785e-06,-0.001008351554854851
173.5,0.003408039590613052,0.00048957383924036,-0.0005663046121619033
174.0,0.0032891559436042275,0.0003706901922315357,-0.000740704244937704
174.5,0.003373492915098574,0.000455027163725882,-0.0007287669151904768
175.0,0.0036057738922089144,0.0006873081408362226,-0.0005852013856358211
175.5,0.0035903781507226795,0.0006719123993499877,-0.0007053030224043614
176.0,0.0040469936128985804,0.0011285278615258887,-0.0003691961279957694
176.5,0.004172007637530415,0.001253541886157723,-0.0003803685416004978
177.0,0.004117348049605436,0.0011988822982327441,-0.0005867761163880774
177.5,0.004367272930412257,0.0014488071790395652,-0.0005040117147374118
178.0,0.005111687372544104,0.0021932216211714125,5.8043919775618326e-05
178.5,0.0052396086147548085,0.0023211428633821167,-1.1286407782648902e-05
179.0,0.0054071022856378645,0.0024886365342651727,-5.551825379049259e-05
179.5,0.0059080833535497404,0.0029896176021770486,0.00021981369148097504
180.0,0.005910771986164996,0.002992306234792304,-1.6373428295149862e-05
180.5,0.006053004845587849,0.003134539094215157,-0.00012538729972914322
181.0,0.006214396248062917,0.0032959304966902253,-0.0002265903786657559
181.5,0.0067493692620653285,0.0038309035106926367,3.563680884508067e-05
182.0,0.0071476705773157725,0.004229204825943081,0.00015241264324420117
182.5,0.007201030641763932,0.00428256489039124,-8.298702146643851e-05
183.0,0.00776735860716539,0.0048488928557926985,0.0001890606934699642
183.5,0.00796917641821437,0.005050710666841679,9.295047362557676e-05
184.0,0.008152664742648846,0.005234198991276154,-2.311849226051526e-05
184.5,0.008774721484687975,0.005856255733315283,0.00029989891203786173
185.0,0.008850288739556598,0.005931822988183906,7.91999040635526e-05
185.5,0.009209865844484997,0.006291400093112305,0.00014762264113302344
186.0,0.009410253938698656,0.006491788187325964,6.436349149522257e-05
186.5,0.009849558838752595,0.006931093087379903,0.00022994999229194752
187.0,0.010006339196224222,0.00708787344485153,0.00012535699417917656
187.5,0.010186694976887895,0.007268229225515203,5.9061639320950356e-05
188.0,0.010466867735268675,0.0075484019838959835,0.00010960931561908565
188.5,0.010915307179827721,0.00799684142845503,0.0003476457967740102
189.0,0.010913295079824022,0.00799482932845133,0.00015650736078333047
189.5,0.011198016193192623,0.008279550441819931,0.00027525931525682924
190.0,0.011343560925286938,0.008425095173914246,0.00027966837523353723
190.5,0.011792448286004892,0.0088739825346322,0.0006136981627514523
191.0,0.01166639146698262,0.008747925715609927,0.00040025079707373297
191.5,0.01193149866461687,0.009013032913244179,0.0006063477748728726
192.0,0.01207209527244232,0.009153629521069628,0.000716936746525336
192.5,0.01182151065380891,0.008903044902436218,0.00046566777651224633
193.0,0.011569178249432838,0.008650712498060147,0.0002419881024352498
193.5,0.011455166626947231,0.00853670087557454,0.00018567313461299167
194.0,0.011389412080064616,0.008470946328691924,0.00020606430949515753
194.5,0.011536097946189825,0.008617632194817133,0.0004664588420441231
195.0,0.011690914365623173,0.00877244861425048,0.0007613848511477568
195.5,0.011279319916138683,0.008360854164765992,0.000514882925185995
196.0,0.0111066581180083,0.008188192366635608,0.0005306466499562113
196.5,0.010764981233882044,0.007846515482509352,0.0003988739588323409
197.0,0.0099887052665201,0.007070239515147408,-0.00014804743090690922
197.5,0.009007812305474044,0.006089346554101352,-0.0008823050389499569
198.0,0.00909762539460728,0.006179159643234589,-0.0005308526576066732
198.5,0.008221615957618842,0.00530315020624615,-0.001132568108607678
199.0,0.007843001854608464,0.0049245361032357726,-0.0012266203848194804
199.5,0.007516225468756259,0.004597759717383567,-0.0012609574880025906
200.0,0.006894931364291816,0.0039764656129191245,-0.001584296086668692
200.5,0.006553193511856158,0.003634727760483466,-0.0016248636019294879
201.0,0.006419496910708809,0.003501031159336117,-0.0014563884209430151
201.5,0.006252669806206312,0.0033342040548336206,-0.0013221424828613743
202.0,0.0061761164375921055,0.0032576506862194137,-0.001100686652192845
202.5,0.00584086980215776,0.002922404050785068,-0.0011427996456828786
203.0,0.0059001305066631645,0.0029816647552904727,-0.0007969245950042408
203.5,0.005952367457387438,0.003033901706014746,-0.00046605754994591625
204.0,0.005521701970851477,0.002603236219478785,-0.0006273563036948886
204.5,0.005684675536765983,0.0027662097853932916,-0.00020536918703820432
205.0,0.005675454190435944,0.002756988439063252,3.316932336994323e-05
205.5,0.005552196897272741,0.0026337311459000493,0.0001457038480880816
206.0,0.005799599120015275,0.0028811333686425836,0.0006163956858052113
206.5,0.005311629460447608,0.002393163709074916,0.00033885098024315696
207.0,0.005411892637569457,0.0024934268861967653,0.000636473118991064
207.5,0.005290925496582621,0.002372459745209929,0.0006997464576834907
208.0,0.005250743426658591,0.002332277675285899,0.0008307691496745682
208.5,0.0054645986898671515,0.0025461329384944597,0.0012029969779878713
209.0,0.005663084809284904,0.0027446190579122126,0.0015473327145083943
209.5,0.005482275209243338,0.002563809457870646,0.0015002495506649405
210.0,0.005496087993847268,0.002577622242474576,0.0016361408047421361
210.5,0.0055902815883642695,0.0026718158369915777,0.0018413009121694332
211.0,0.005668405675549669,0.002749939924176977,0.0020198623719868344
211.5,0.005255586579813596,0.0023371208284409042,0.0016975680011317245
212.0,0.005418550247608044,0.002500084496235352,0.001941781800928097
212.5,0.005149470333076854,0.0022310045817041622,0.0017453260590462828
213.0,0.005126105201655356,0.0022076394502826644,0.0017866085741338141
213.5,0.005466628687698789,0.002548162936326097,0.0021844448769753047
214.0,0.0055834425202430605,0.0026649767688703687,0.0023518633670049577
214.5,0.005585929205097739,0.0026674634537250472,0.0023988521282017937
215.0,0.0055680119571157325,0.0026495462057430407,0.0024199139696149015
215.5,0.005571252955251923,0.0026527872038792314,0.0024571608946795205
216.0,0.005757685649140745,0.002839219897768053,0.0026731436442693625
216.5,0.00564640401872831,0.0027279382673556186,0.002587439120233973
217.0,0.0056395532823119866,0.0027210875309392948,0.002602640083013536
217.5,0.005620664837319437,0.002702199085946745,0.0026026898025695378
218.0,0.005801090853046217,0.0028826251016735253,0.0027993169766170997
218.5,0.005756970357607904,0.0028385046062352126,0.0027690026557535123
219.0,0.006094227393017475,0.0031757616416447833,0.0031179796515210956
219.5,0.005858076442739357,0.002939610691366665,0.0028917395404015
220.0,0.006320240396346921,0.003401774644974229,0.003362252444796581
