wavelength,absorbance,absorbance_bk,residual_3gauss
117.0,0.4326847049920765,0.43742837454807504,0.00041427553117795446
117.5,0.42874994554591733,0.43349361510191586,-0.0012869185941898342
118.0,0.42494405723545114,0.4296877267914497,-0.0021733787743886124
118.5,0.4221163547151719,0.4268600242711704,-0.001413111778228282
119.0,0.41832627163648795,0.4230699411924865,-0.0009680570623805673
119.5,0.4141673331299626,0.41891100268596115,-0.0002701694053778847
120.0,0.4110717247822083,0.41581539433820686,0.002083084632890364
120.5,0.4050605355892355,0.409804205145234,0.00207888982687765
121.0,0.3991628445149141,0.4039065140709126,0.00270807132350126
121.5,0.3924523103050794,0.3971959798610779,0.0030015672287997397
122.0,0.384172425018058,0.3889160945740565,0.0021555449505066826
122.5,0.3767871116968125,0.38153078125281104,0.0025818437936160343
123.0,0.36615037080318286,0.3708940403591814,7.745339640286009e-05
123.5,0.3577807858035519,0.3625244553595504,9.884680998700768e-05
124.0,0.34848467400955746,0.353228343565556,-0.0006150333237622818
124.5,0.3390525457714043,0.34379621532740284,-0.0013464557315018277
125.0,0.32891888815469533,0.33366255771069386,-0.002739211283331655
125.5,0.320043370184129,0.3247870397401275,-0.002917430810139454
126.0,0.31183408028558585,0.3165777498415844,-0.0025622694616113106
126.5,0.30318233091673025,0.3079260004727288,-0.002876889234387392
127.0,0.29561300168251287,0.3003566712385114,-0.0024357325506361716
127.5,0.288155668958596,0.29289933851459454,-0.0023128020897512647
128.0,0.2818908008690558,0.28663447042505436,-0.0015346322212435037
128.5,0.2764775894887164,0.28122125904471496,-0.0005513476504737103
129.0,0.2717055176930317,0.2764491872490302,0.0003163147231347585
129.5,0.2679842841837691,0.2727279537397676,0.0013686620184971132
130.0,0.2647511198292226,0.26949478938522115,0.0019364187613516992
130.5,0.2626564579275968,0.2674001274835953,0.0025687713705469517
131.0,0.261445681357361,0.26618935091335955,0.0029177808139606576
131.5,0.2614249165784546,0.26616858613445316,0.0032070882979729487
132.0,0.2620552076179556,0.2667988771739541,0.0028291816009186066
132.5,0.2640162789324515,0.26875994848845003,0.0024123447946227117
133.0,0.2673276218677712,0.27207129142376973,0.0019449203050240782
133.5,0.2717099102942952,0.27645357985029373,0.001139765843028051
134.0,0.27720214245698915,0.2819458120129877,5.416666358482036e-05
134.5,0.28428211022984845,0.289025779785847,-0.000787340666355163
135.0,0.2922042459745139,0.2969479155305124,-0.0020533299033757
135.5,0.30169892813425325,0.3064425976902518,-0.0029050929647416734
136.0,0.3123757932677367,0.3171194628237352,-0.003593075129294687
136.5,0.3243620595891548,0.32910572914515335,-0.003819240327234741
137.0,0.3374319505435143,0.34217562009951286,-0.003609357092789811
137.5,0.35189735814721945,0.356641027703218,-0.0024251092079784486
138.0,0.3670734462142752,0.3718171157702737,-0.0007023341740702294
138.2,0.3728351990115864,0.37757886856758494,-0.00031083521027874816
138.4,0.37837556326943256,0.3831192328254311,-0.00010804362476241058
138.6,0.3837857513319771,0.38852942088797565,1.5181988083035058e-05
138.8,0.39000371478057466,0.3947473843365732,0.0010148950235138732
139.0,0.39597251200310263,0.40071618155910116,0.0018523567115190653
139.2,0.4008304828170106,0.40557415237300914,0.0016841364940192172
139.4,0.40654634382559496,0.4112900133815935,0.0024971309411872533
139.6,0.41120129840543856,0.4159449679614371,0.0023905954519144457
139.8,0.41586241259808254,0.4206060821540811,0.0024494403762667094
140.0,0.4208514373443356,0.42559510690033414,0.003012972378879486
140.2,0.4245302941764601,0.42927396373245863,0.0024602985528167642
140.4,0.42834073190317706,0.4330844014591756,0.0022499012250336015
140.6,0.4316241815043729,0.4363678510603714,0.0017394110865560641
140.8,0.4340666315116307,0.43881030106762925,0.0006304013480907256
141.0,0.4366496197193649,0.4413932892753634,-8.070080272754021e-05
141.2,0.43912200845418053,0.44386567801017907,-0.0006309177779428854
141.4,0.4410564763895408,0.44580014594553935,-0.001434306771405769
141.6,0.44349471550362907,0.4482383850596276,-0.0014368375038595893
141.8,0.44506774605018146,0.44981141560618,-0.0019961492137927084
142.0,0.44668010722861046,0.451423776784609,-0.0021974287580368568
142.2,0.4481245603221948,0.4528682298781933,-0.0022387726016798726
142.4,0.4495092470475343,0.45425291660353284,-0.0020040895006032677
142.6,0.45018763951169294,0.45493130906769147,-0.002133207024989592
142.8,0.45066676817967827,0.4554104377356768,-0.0021136950642310914
143.0,0.45140973630414394,0.45615340586014247,-0.0014783974028922398
143.2,0.45154970401378863,0.45629337356978716,-0.0010914877115953403
143.4,0.4514424576744772,0.45618612723047575,-0.0005959338785861967
143.6,0.4506549465679502,0.4553986161239487,-0.00042498817742758765
143.8,0.44979885502715466,0.4545425245831532,3.136532571879069e-05
144.0,0.4481787115235428,0.45292238107954136,7.450807352482602e-05
144.2,0.44612314148136384,0.45086681103736237,2.8436247870244902e-05
144.4,0.4439281027619316,0.44867177231793015,0.00018300130540194193
144.6,0.4416015603702264,0.44634522992622494,0.000538598786708977
144.8,0.4390566512945452,0.4438003208505437,0.0009993567022854588
145.0,0.4362487434627649,0.4409924130187634,0.0015102278400375146
145.2,0.4326918479617584,0.43743551751775694,0.00157344546194782
145.4,0.4291195895215528,0.43386325907755136,0.0019095476623143814
145.6,0.4249413171160416,0.42968498667204014,0.0019135524487647881
145.8,0.4204310313514816,0.4251747009074801,0.001843960352998164
146.0,0.4156159977322492,0.42035966728824775,0.0017114537097285276
146.2,0.4111531524344984,0.41589682199049693,0.0021553991832351516
146.4,0.4055964443023672,0.4103401138583657,0.0017112970908232383
146.6,0.39996955590761424,0.40471322546361277,0.0013836200710388158
146.8,0.39473614897023673,0.39947981852623526,0.001616185960385319
147.0,0.3879544846270721,0.39269815418307064,0.00044691477896152687
147.2,0.38220755328799466,0.3869512228439932,0.00043810381496073303
147.4,0.37545698101971026,0.3802006505757088,-0.00046951317305710116
147.6,0.36905744659420847,0.373801116150207,-0.0009421895970448957
147.8,0.3627585159532679,0.36750218550926644,-0.0012511670493219884
148.0,0.35584416032476535,0.3605878298807639,-0.002132988900682531
148.2,0.34912654432597345,0.353870213881972,-0.0027955417787087766
148.4,0.34339254879994213,0.34813621835594066,-0.0024713619692556255
148.6,0.337163475252574,0.34190714480857254,-0.002657761809299608
148.8,0.33181614901415246,0.336559818570151,-0.001995561009760616
149.0,0.32590322070001126,0.3306468902560098,-0.0019486254972992945
149.2,0.32107969602188563,0.32582336557788416,-0.0008771859582307195
149.4,0.3152870675985752,0.32003073715457375,-0.0008535647067358099
149.6,0.31007872252988894,0.31482239208588747,-0.00033663938108258185
149.8,0.3045883174576571,0.3093319870136556,-0.00020335396584786336
150.0,0.29967172115216334,0.30441539070816187,0.00039332076792747417
150.5,0.28845897967874734,0.29320264923474587,0.002439407639363067
151.0,0.27574188883032513,0.28048555838632366,0.0021954808665944348
151.5,0.2634675983760416,0.26821126793204014,0.0016266274585898244
152.0,0.25186406986999743,0.25660773942599596,0.0010492830934069053
152.5,0.2407129020485821,0.24545657160458065,0.00039368448671253664
153.0,0.23077361184848433,0.2355172814044829,0.0006123794188954423
153.5,0.22073647519319292,0.22548014474919148,0.0006131469824010027
154.0,0.21038282286897247,0.21512649242497103,0.0003970219064103053
154.5,0.1995544122691844,0.20429808182518297,5.207436700516155e-06
155.0,0.1877965229835572,0.19254019253955576,-0.0008582004553707445
155.5,0.17633780074659194,0.1810814703025905,-0.0008625544763523063
156.0,0.1640709893075136,0.16881465886351216,-0.00108027722076251
156.5,0.1514767643925444,0.15622043394854296,-0.0010665736316075591
157.0,0.1388598832169923,0.14360355277299086,-0.0006198448119965616
157.5,0.12589362309803231,0.13063729265403087,-0.00022746242265900274
158.0,0.1129679529383436,0.11771162249434214,0.00029720291933753307
158.5,0.10004380690458792,0.10478747646058646,0.000687028960956737
159.0,0.08736829493130006,0.09211196448729861,0.0009554212958510361
159.5,0.07479398053256783,0.07953765008856638,0.0007337199375147679
160.0,0.0628410279807395,0.06758469753673804,0.000348795827896764
160.5,0.051630696436381546,0.05637436599238009,-0.0002319387759191216
161.0,0.0418573700881162,0.046601039644114745,-0.0004215831451145416
161.5,0.033599070324437735,0.03834273988043628,-0.00020098814627868972
162.0,0.026130222515502555,0.030873892071501104,-0.00030795907133197506
162.5,0.019808886834771253,0.0245525563907698,-0.0003553725500318357
163.0,0.015100527793010132,0.01984419734900868,0.00018492819773429162
163.5,0.010938847741537196,0.015682517297535743,0.00033410104161433855
164.0,0.007534194683543157,0.012277864239541705,0.00040567346138682334
164.5,0.004744111437787284,0.009487780993785833,0.00036771464249762964
165.0,0.002700199582246677,0.007443869138245225,0.00046257175640202104
165.5,0.0011462757365404313,0.005889945292538979,0.0005394748604542988
166.0,0.0001842479625179204,0.004927917518516468,0.000796529228587156
166.5,-0.0010970593568136219,0.0036466101991849253,0.000407227190867714
167.0,-0.0014617131651668783,0.003281956390831669,0.000679674584826994
167.5,-0.0020922139468476215,0.002651455609150926,0.0004911378913857963
168.0,-0.0028278018392885653,0.001915867716709982,5.057416194483586e-05
168.5,-0.003067409786965308,0.0016762597690332393,-3.0262436400605407e-06
169.0,-0.003566122904050971,0.0011775466519475765,-0.00039558426539441525
169.5,-0.003622498116693589,0.0011211714393049585,-0.0004037022786053835
170.0,-0.003499354195478151,0.0012443153605203963,-0.0002739964273081423
170.5,-0.004141597361382659,0.000602072194615888,-0.0009396316976353985
171.0,-0.004162758741189477,0.0005809108148090705,-0.0010057702975511305
171.5,-0.0038040060034833455,0.0009396635525152019,-0.0007077001702510298
172.0,-0.004223073142223648,0.0005205964137748997,-0.001199072862645521
172.5,-0.004171193718449421,0.0005724758375491266,-0.0012283108312577684
173.0,-0.004743669555998547,0.0,-0.0018887870197063744
173.5,-0.004689583904394912,5.4085651603635355e-05,-0.001928257016045681
174.0,-0.0046026147997255485,0.00014105475627299892,-0.001939473830719554
174.5,-0.004669644552013969,7.402500398457842e-05,-0.0021086597161257365
175.0,-0.004183748165785772,0.000559921390212775,-0.001728400731595341
175.5,-0.004152761976040268,0.0005909075799582792,-0.001806152294953867
176.0,-0.0036961743603397576,0.0010474951956587898,-0.0014610879839031137
176.5,-0.003509593760939791,0.0012340757950587565,-0.001388539970019303
177.0,-0.003415925315398166,0.0013277442406003813,-0.0014111576202848579
177.5,-0.003136808602111983,0.0016068609538865642,-0.0012503335345155093
178.0,-0.003046287412747937,0.0016973821432506105,-0.0012798657707087072
178.5,-0.0025873412726128454,0.002156328283385702,-0.0009424845601680083
179.0,-0.0028547356336262176,0.0018889339223723297,-0.0013326995147799141
179.5,-0.0024713780963892137,0.0022722914596093337,-0.0010731540874729176
180.0,-0.0018572720593914244,0.0028863974966071232,-0.0005835783000728897
180.5,-0.0022271473176687685,0.002516522238329779,-0.0010784190125543475
181.0,-0.0012696655346357496,0.003474004021362798,-0.00024604549526734045
181.5,-0.0005075742009013025,0.004236095355097245,0.0003910961895545492
182.0,-0.0004140983844682176,0.00432957117153033,0.00036009076543756444
182.5,0.00024018175349672217,0.00498385130949527,0.0008906753550382519
183.0,-2.6484285422995835e-05,0.004717185270575551,0.0005014232031561429
183.5,0.00015676795603940927,0.004900437512037957,0.0005635278023473616
184.0,0.0006213415794374964,0.005365011135436044,0.0009087253016316953
184.5,0.0008733537260036781,0.005617023282002226,0.001043468527575901
185.0,0.0007966394939703462,0.005540309049968894,0.0008519294487570285
185.5,0.0011541682081748596,0.005897837764173407,0.0010974139284214406
186.0,0.001550205249813314,0.006293874805811861,0.0013845219868454384
186.5,0.0018712347826259567,0.006614904338624504,0.0016000689228707265
187.0,0.0018741854098519371,0.006617854965850484,0.0015013093419144249
187.5,0.0017096526617450176,0.006453322217743565,0.001239158003099248
188.0,0.002415790078928728,0.007159459634927276,0.0018520792635769463
188.5,0.002467256056387417,0.007210925612385965,0.0018150322975748453
189.0,0.0031544774373845155,0.007898146993383063,0.0024187330920917615
189.5,0.0025966391121298475,0.007340308668128395,0.0017826424865397417
190.0,0.002797503288381189,0.007541172844379737,0.001910783935752538
190.5,0.003180015556821126,0.007923685112819673,0.0022263481311092063
191.0,0.002915563799676602,0.00765923335567515,0.00190095053972353
191.5,0.003041807112972889,0.007785476668971437,0.001972459043051683
192.0,0.002701059098161344,0.0074447286541598915,0.0015833760409972595
192.5,0.002964670855228571,0.0077083404112271185,0.0018052203632440119
193.0,0.002721166706565134,0.007464836262563682,0.0015266620259086622
193.5,0.0028334223673933123,0.00757709192339186,0.001610699557233401
194.0,0.002656268388060961,0.007399937944059508,0.0014122627245733675
194.5,0.0018649063625756183,0.006608575918574166,0.0006066281629604261
195.0,0.0017035930251762576,0.006447262581174805,0.0004381030318477055
195.5,0.0012933608336703072,0.006037030389668855,2.7745302421122893e-05
196.0,0.0007002314799881854,0.005443901035986733,-0.0005584228815964818
196.5,0.0004989224620952781,0.005242592018093826,-0.0007457086342450613
197.0,0.00036001061524808367,0.005103680171246631,-0.0008635846507025714
197.5,0.0002815231024066809,0.005025192658405228,-0.0009140979251031824
198.0,-0.00012843845338234773,0.004615231102616199,-0.0012892451823719783
198.5,-0.0003554978014302704,0.004388171754568277,-0.00147477213444346
199.0,-0.0006214332273190412,0.004122236328679506,-0.001692601932218367
199.5,-0.0012897448431618992,0.003453924712836648,-0.0023064016139449136
200.0,-0.0009260595291374735,0.003817610026861074,-0.001881986081789259
200.5,-0.001045078930207328,0.0036985906257912195,-0.0019342650183046552
201.0,-0.000781142370835399,0.003962527185163148,-0.001597804614296327
201.5,-0.0010982599847553687,0.0036454095712431787,-0.0018368594145960755
202.0,-0.00112520836961575,0.003618461186382797,-0.0017804666017363201
202.5,-0.00136830015536097,0.0033753694006375774,-0.001935214117130499
203.0,-0.0012001247708956226,0.0035435447851029245,-0.0016739799155359517
203.5,-0.0011607331452021012,0.0035829364107964464,-0.0015371151005668382
204.0,-0.0012341520054881012,0.0035095175505104464,-0.0015089566156853236
204.5,-0.0013226806580927868,0.003420988897905761,-0.001492122388390759
205.0,-0.0012899740099463195,0.003453695546052228,-0.0013505926974174457
205.5,-0.0014851445834711547,0.0032585249725273924,-0.0014338105277573385
206.0,-0.0013705556946385048,0.003373113861360043,-0.0012044730949516734
206.5,-0.0015083359945502668,0.0032353335614482806,-0.0012250447504496922
207.0,-0.0011550503899369663,0.003588619166061581,-0.0007524262944503765
207.5,-0.00117543457562635,0.0035682349803721975,-0.0006516879398113899
208.0,-0.001290202374588627,0.00345346718140992,-0.0006438751325790089
208.5,-0.0011227468165889384,0.003620922739409609,-0.00035270816945803416
209.0,-0.0010573365485112638,0.0036863330074872833,-0.00016277721384612247
209.5,-0.0010181982084407383,0.003725471347557809,1.376649707621018e-06
210.0,-0.0012716230343427504,0.003472046521655797,-0.00012684395515471288
210.5,-0.0015202309404195665,0.003223438615578981,-0.0002503556225969708
211.0,-0.0016584904222847676,0.00308517913371378,-0.0002639130122217776
211.5,-0.001531802817397154,0.0032118667386013934,-1.319214901325744e-05
212.0,-0.001193200326537046,0.0035504692294615016,0.0004485124153261583
212.5,-0.0011741007786557928,0.003569568777342755,0.0005895335949422905
213.0,-0.0014651422537121422,0.003278527302286405,0.00041899780023187854
213.5,-0.0013030162387869,0.0034406533172116477,0.0006999923302338598
214.0,-0.0013608430849116706,0.0033828264710868768,0.0007591903598859443
214.5,-0.0010069909627469073,0.00373667859325164,0.0012280323251552113
215.0,-0.0015412551674140727,0.0032024143885844747,0.0008065468576692035
215.5,-0.0011624856182507275,0.00358118393774782,0.0012957234257468075
216.0,-0.0007369031305103103,0.004006766425488237,0.0018291961081560513
216.5,-0.00022710560452907268,0.004516563951469475,0.002444237359045298
217.0,-0.0007389302190910857,0.004004739336907461,0.002034895681841602
217.5,-0.0009832589261442083,0.0037604106298543393,0.001890189919976416
218.0,-0.00043383500713683207,0.004309834548861715,0.002536292409601234
218.5,-0.0007264949119478323,0.004017174644050715,0.002337296779102203
219.0,-0.0008076584426929262,0.0039360111133056215,0.0023467273391906767
219.5,-0.00045926131743327545,0.004284408238565272,0.0027826060348130404
220.0,-0.0005926730258111021,0.004150996530187445,0.0027335340532648102
