wavelength,absorbance,absorbance_bk,residual_3gauss
117.0,0.7367381939503416,0.7397943438181975,-0.0023190371634681517
117.5,0.7319715530187954,0.7350277028866513,-0.002133346156057425
118.0,0.7246800023116243,0.7277361521794803,-0.003475000205314993
118.5,0.7177451081416466,0.7208012580095026,-0.0034923313800832023
119.0,0.7173123852589576,0.7203685351268135,0.003925031460261685
119.5,0.7075444916105801,0.710600641478436,0.002899271347196586
120.0,0.6981642945403338,0.7012204444081898,0.003107338766976886
120.5,0.6890503541959524,0.6921065040638084,0.0043762945576897305
121.0,0.6778774669323213,0.6809336168001773,0.004323678896228089
121.5,0.6641257759863568,0.6671819258542128,0.002366411531520396
122.0,0.6509813685349145,0.6540375184027705,0.0016211428726485844
122.5,0.6372002121309005,0.6402563619987565,0.0007679127968648336
123.0,0.6239410657855206,0.6269972156533765,0.000882760463098986
123.5,0.6098186092115561,0.612874759079412,0.0004905415600221508
124.0,0.593551827730411,0.596607977598267,-0.0017869910335820416
124.5,0.5783722754703702,0.5814284253382261,-0.002823196001951689
125.0,0.5637835710601364,0.5668397209279924,-0.0032272566571464045
125.5,0.5485307366404515,0.5515868865083075,-0.004374950279765422
126.0,0.5343046235172434,0.5373607733850994,-0.004704187318850694
126.5,0.5216716030076334,0.5247277528754893,-0.0037850938370752596
127.0,0.5085403195754012,0.5115964694432572,-0.0038527885229862058
127.5,0.49737473601770416,0.5004308858855601,-0.0025935714367074647
128.0,0.4864121037915962,0.4894682536594522,-0.001925839453317868
128.5,0.47717204787428347,0.48022819774213943,-0.0004894913539061907
129.0,0.4688717799376943,0.47192792980555026,0.0007712309448502652
129.5,0.46199623488710656,0.4650523847549625,0.002180287902606326
130.0,0.45641832481617806,0.459474474684034,0.0034529804773612005
130.5,0.45171674857309774,0.4547728984409537,0.00401711083441425
131.0,0.44855510231190127,0.4516112521797572,0.004395879123702817
131.5,0.4463101842210879,0.4493663340889439,0.003840351002072917
132.0,0.4468366046380088,0.44989275450586474,0.004098520038025577
132.5,0.4488132796651508,0.45186942953300674,0.0037664268824074143
133.0,0.452278793930405,0.45533494379826095,0.002828176442050634
133.5,0.4574436697336575,0.4604998196015135,0.001472720506564662
134.0,0.46479945614342183,0.4678556060112778,0.00020712889707497073
134.5,0.4738532145323013,0.47690936440015724,-0.0014052790084575495
135.0,0.48436179577760574,0.4874179456454617,-0.003507757638229858
135.5,0.4977576896118917,0.5008138394797477,-0.004522339651462981
136.0,0.5129212384132861,0.515977388281142,-0.005376821321045999
136.5,0.5304681370739811,0.5335242869418371,-0.005217773946690651
137.0,0.5495733631134652,0.5526295129813211,-0.004588567686695466
137.5,0.5709947267971892,0.5740508766650452,-0.0024093028111977777
138.0,0.593067295509075,0.596123445376931,1.2574781563245985e-05
138.2,0.5998432951299224,0.6028994449977784,-0.0011003674572470645
138.4,0.6084909274532212,0.6115470773210772,-0.00031970075218124006
138.6,0.6175336848598004,0.6205898347276564,0.0009042888410167871
138.8,0.6254710879747798,0.6285272378426358,0.001097692424593677
139.0,0.6340038030276833,0.6370599528955393,0.001987994142200189
139.2,0.6416507625962585,0.6447069124641145,0.0021210861852658525
139.4,0.6493291929647846,0.6523853428326406,0.0024411865803662947
139.6,0.6567533310119009,0.6598094808797569,0.0026894431325061863
139.8,0.6634658380251133,0.6665219878929692,0.0024352314121438567
140.0,0.6710624648294052,0.6741186146972612,0.003300701692871333
140.2,0.6772880169090727,0.6803441667769287,0.0030566240651184184
140.4,0.6830155326470873,0.6860716825149432,0.0026014454213696414
140.6,0.6885702978034042,0.6916264476712601,0.002285182028474053
140.8,0.692986949395517,0.6960430992633729,0.001166401465796385
141.0,0.6972970365530403,0.7003531864208963,0.00029966213617405035
141.2,0.7010679886847204,0.7041241385525764,-0.000725638658511496
141.4,0.7050928835891268,0.7081490334569828,-0.0010956147753884427
141.6,0.708401987118738,0.711458136986594,-0.0017604671260962323
141.8,0.7117086039893917,0.7147647538572477,-0.0019887451162154957
142.0,0.7141959190082505,0.7172520688761065,-0.0025806136396134827
142.2,0.7169425961553579,0.7199987460232139,-0.0024423574632452816
142.4,0.7190818578817894,0.7221380077496453,-0.002427399897180882
142.6,0.720826110132311,0.723882260000167,-0.0023117694878022066
142.8,0.7219768636075374,0.7250330134753934,-0.0022842634541979656
143.0,0.7233866799586285,0.7264428298264844,-0.0014845784003563178
143.2,0.7233860318275842,0.7264421816954402,-0.0015765186083586125
143.4,0.7235308325304112,0.7265869823982671,-0.0010005253288334348
143.6,0.7231685200268461,0.726224669894702,-0.00040764163728790326
143.8,0.7222670487254229,0.7253231985932789,0.00016944147687958377
144.0,0.7206082089768707,0.7236643588447267,0.0005096784171014779
144.2,0.7181895339740054,0.7212456838418614,0.0006055621597189642
144.4,0.7152471078333528,0.7183032577012087,0.000685931817629104
144.6,0.7116823626490284,0.7147385125168844,0.00064278307854293
144.8,0.7083662442230849,0.7114223940909409,0.0013354618764543913
145.0,0.7033064885362043,0.7063626384040602,0.0007579839551926648
145.2,0.6989263636086169,0.7019825134764729,0.0013178354947293025
145.4,0.6940204607791324,0.6970766106469883,0.0017918392583355924
145.6,0.6880926590322072,0.6911488089000631,0.0016642102125982161
145.8,0.6830472539948267,0.6861034038626826,0.002817792437352029
146.0,0.6750765931785072,0.6781327430463632,0.0014218189499832778
146.2,0.6685438219605141,0.6715999718283701,0.001814798821653807
146.4,0.6616361072445461,0.6646922571124021,0.0021578982240014755
146.6,0.6540845620758977,0.6571407119437537,0.0021550381759583015
146.8,0.6452227896446281,0.648278939512484,0.0011116266979718237
147.0,0.6374573091144631,0.640513458982319,0.0014051868491139485
147.2,0.6278677611713838,0.6309239110392397,8.577733063097615e-05
147.4,0.619088474389374,0.6221446242572299,-0.00024221471400465155
147.6,0.60959421814818,0.612650368016036,-0.0011340846964759121
147.8,0.6003211028105112,0.6033772526783672,-0.0016836666607314976
148.0,0.5902844152900606,0.5933405651579166,-0.002905248553103923
148.2,0.581289977840908,0.5843461277087639,-0.0030219613422020064
148.4,0.5723149126782052,0.5753710625460612,-0.0030847620901186534
148.6,0.5637820011989128,0.5668381510667687,-0.0026978251161418054
148.8,0.5552458314478964,0.5583019813157524,-0.00233215068375503
149.0,0.5470017455441435,0.5500578954119995,-0.0017163826991981601
149.2,0.5386930253224294,0.5417491751902853,-0.0012294004502942935
149.4,0.530819049698416,0.5338751995662719,-0.00039195419089699257
149.6,0.5227124674829393,0.5257686173507953,0.00011069586946677035
149.8,0.5148520182683692,0.5179081681362252,0.0007417665977996757
150.0,0.5066889830718705,0.5097451329397265,0.0009395436348785813
150.5,0.48760582191126495,0.4906619717791209,0.0021253275021746454
151.0,0.46809417249095353,0.4711503223588095,0.001921878549502376
151.5,0.4485036400348152,0.45155978990267115,0.0006997585380115745
152.0,0.43025187438827406,0.43330802425613,-1.3383513507991829e-06
152.5,0.41311797574652626,0.4161741256143822,-0.0001942439035593213
153.0,0.39715403539559274,0.4002101852634487,0.0004444162996606327
153.5,0.381039291557624,0.38409544142547997,0.0008996356258104132
154.0,0.3640983919063798,0.3671545417742358,0.0008041836687794901
154.5,0.3464191726325823,0.3494753225004383,0.0005239925594242578
155.0,0.3280339959106168,0.3310901457784728,0.0003100394090078118
155.5,0.30829085696923014,0.3113470068370861,-0.00035408296029576514
156.0,0.2878624288302674,0.2909185786981234,-0.0007583813954891161
156.5,0.26688784512316666,0.2699439949910226,-0.0008302329676789788
157.0,0.24563937560069304,0.24869552546854898,-0.00046323150963945015
157.5,0.2239273228832776,0.22698347275113354,-9.858827648290269e-05
158.0,0.20229089479899748,0.2053470446668534,0.00048686137471068425
158.5,0.18013759905788523,0.18319374892574117,0.0003460515558811328
159.0,0.15860216973465824,0.16165831960251417,0.0002485686810307641
159.5,0.13782107460590284,0.14087722447375878,-1.784268323079541e-05
160.0,0.11778738612320054,0.12084353599105649,-0.0007689219702241012
160.5,0.09950605172877679,0.10256220159663273,-0.0012505628318026096
161.0,0.08341128753420014,0.08646743740205609,-0.0012099020406015487
161.5,0.06916361296941166,0.07221976283726761,-0.001093585354359758
162.0,0.057033136792050014,0.06008928665990596,-0.000666115476150024
162.5,0.04616664945843814,0.04922279932629409,-0.0007496498828686374
163.0,0.03791266565910564,0.04096881552696159,9.034563817649638e-05
163.5,0.031662041272175714,0.03471819114003166,0.0013728036102900396
164.0,0.026192161700555404,0.02924831156841135,0.002031642466942804
164.5,0.021732488659946536,0.02478863852780248,0.0024683174904293996
165.0,0.018311623393476403,0.021367773261332348,0.0028874603123152792
165.5,0.015512909994347157,0.018569059862203103,0.003043232779626561
166.0,0.013452969990600052,0.016509119858455996,0.003211040059357694
166.5,0.011785619163521088,0.014841769031377032,0.003187015026915277
167.0,0.010418249600990113,0.013474399468846057,0.0030021030930734195
167.5,0.009397065380643114,0.012453215248499058,0.0028067507170036372
168.0,0.00835763521211252,0.011413785079968465,0.002322221264360415
168.5,0.007866658791595206,0.01092280865945115,0.0021840024333445902
169.0,0.007175787663932247,0.010231937531788192,0.0016977634608611892
169.5,0.006305222290991626,0.00936137215884757,0.0009252751892373998
170.0,0.006234443984159943,0.009290593852015888,0.0008774249451598912
170.5,0.005929259147007592,0.008985409014863537,0.0005433548894035016
171.0,0.005412139746243293,0.008468289614099237,-3.7374594496557625e-05
171.5,0.005547876773637053,0.008604026641492998,1.2389402646847958e-05
172.0,0.004527690195394813,0.0075838400632507585,-0.0011072737746162676
172.5,0.004359234369704664,0.007415384237560609,-0.0013823983101228197
173.0,0.004054985180358775,0.00711113504821472,-0.001796020653986213
173.5,0.004031170183898819,0.007087320051754763,-0.0019287135890115343
174.0,0.003966149862109793,0.007022299729965738,-0.0020998173038354728
174.5,0.0033617624627861387,0.006417912330642084,-0.0028058195910979607
175.0,0.0035640587337914223,0.006620208601647367,-0.0026994295069846025
175.5,0.003188356298878894,0.006244506166734839,-0.003164391501122213
176.0,0.003442710080064776,0.00649885994792072,-0.0029919259035416246
176.5,0.0033960646964500208,0.006452214564305966,-0.003112516777809356
177.0,0.0036359802052724263,0.006692130073128371,-0.0029381464059068767
177.5,0.004006682316578614,0.007062832184434559,-0.0026242187118639196
178.0,0.004549807273472971,0.007605957141328916,-0.0021287969283259704
178.5,0.0045609433892782,0.007617093257134146,-0.0021560504738840566
179.0,0.004662240075307744,0.007718389943163689,-0.002083638180386045
179.5,0.004365829747370242,0.007421979615226186,-0.002399281142666224
180.0,0.00488561399857748,0.007941763866433424,-0.0018889729222704224
180.5,0.004984994743178796,0.00804114461103474,-0.0017892458216664225
181.0,0.005118750711214138,0.008174900579070082,-0.0016452924678119745
181.5,0.0053956406573273915,0.008451790525183337,-0.0013483610891399326
182.0,0.0057195778250631844,0.008775727692919129,-0.0009945797761875038
182.5,0.005323479687073524,0.008379629554929468,-0.0013511055924088078
183.0,0.0050929578851721495,0.008149107753028094,-0.0015324335351216498
183.5,0.005891259360692731,0.008947409228548676,-0.0006754543049946066
184.0,0.0058350545240698545,0.008891204391925799,-0.0006636650011995048
184.5,0.00633321124517172,0.009389361113027664,-8.839393877869625e-05
185.0,0.0070138631552605695,0.010070013023116515,0.0006782689159895196
185.5,0.006828415262924911,0.009884565130780856,0.0005874789016888267
186.0,0.006870807939953912,0.009926957807809857,0.000732902067827999
186.5,0.007351169603789133,0.010407319471645077,0.0013243693566081446
187.0,0.007650536378543395,0.01070668624639934,0.0017425978388941159
187.5,0.00767942367014405,0.010735573537999995,0.0018977639344769787
188.0,0.007686278936318123,0.010742428804174068,0.002037957890354573
188.5,0.00811346398481904,0.011169613852674985,0.0026051678422741326
189.0,0.008721398571916585,0.01177754843977253,0.003359425222518527
189.5,0.008371528658116129,0.011427678525972073,0.003161774861207077
190.0,0.008643287572419245,0.01169943744027519,0.003591238022265422
190.5,0.00821343431910424,0.011269584186960184,0.003324152597588814
191.0,0.007997917342352463,0.011054067210208407,0.003276038764120323
191.5,0.007921160426330131,0.010977310294186075,0.0033708867708305123
192.0,0.00783725684741817,0.010893406715274114,0.003462352961767781
192.5,0.007734969693434782,0.010791119561290727,0.0035387619397094132
193.0,0.0074453263993917345,0.01050147626724768,0.0034307029099472242
193.5,0.00685691918090868,0.009913069048764624,0.0030263318757226803
194.0,0.006658096502578544,0.00971424637043449,0.003013564813474383
194.5,0.005856384592673299,0.008912534460529245,0.0023995008307090516
195.0,0.004831350623089289,0.007887500490945235,0.0015632869174334284
195.5,0.003981670436963621,0.007037820304819566,0.0009031871662886016
196.0,0.003682516879059908,0.006738666746915853,0.0007939725099136907
196.5,0.002864321869169136,0.005920471737025081,0.00016568410996989792
197.0,0.002074176976882672,0.005130326844738617,-0.0004349648488469514
197.5,0.0018458360942814993,0.004901985962137444,-0.00047458536748375135
198.0,0.0013727784985716732,0.004428928366427618,-0.0007600485552712198
198.5,0.00018493854273465713,0.003241088410590602,-0.0017617550312415556
199.0,0.0002676919120868088,0.0033238417799427537,-0.0014946478678914453
199.5,-0.00019043738380168193,0.002865712484054263,-0.0017705049088965414
200.0,-0.0004985875233264041,0.0025575623445295405,-0.0018987487004438943
200.5,-0.001056667363510025,0.0019994825043459195,-0.0022795545098916155
201.0,-0.0009219654917125302,0.0021341843761434145,-0.001970459013038373
201.5,-0.0016996086206502268,0.001356541247205718,-0.002576818430244254
202.0,-0.001370136956079348,0.001686012911776597,-0.002079383738089113
202.5,-0.0014304795376744556,0.0016256703301814892,-0.0019752759538237893
203.0,-0.0012551236049760687,0.0018010262628798761,-0.001639155540658899
203.5,-0.0015104296713592882,0.0015457201964966566,-0.0017375376125113675
204.0,-0.0016960488883499064,0.0013601009795060385,-0.0017702095157571343
204.5,-0.0017145062103816322,0.0013416436574743126,-0.0016398142929162456
205.0,-0.0020622505552354542,0.0009938993126204906,-0.0018429012180126532
205.5,-0.002102588025895179,0.0009535618419607658,-0.001742859463571252
206.0,-0.002016546204052552,0.001039603663803393,-0.0015207829034994996
206.5,-0.0023148277350625453,0.0007413221327933995,-0.0016874242655110301
207.0,-0.002524451344822025,0.0005316985230339197,-0.0017698367673203586
207.5,-0.002360178290654437,0.000695971577201508,-0.0014828012324004862
208.0,-0.0027966400320280113,0.00025950983582793356,-0.001800954464845469
208.5,-0.0019177325478277913,0.0011384173200281536,-0.00080818430382745
209.0,-0.0018474699500216447,0.0012086799178343001,-0.0006284840013585705
209.5,-0.0018102884276316995,0.0012458614402242453,-0.00048625695128337696
210.0,-0.0016397754960563314,0.0014163743717996134,-0.0002150467387444276
210.5,-0.001953385166161604,0.0011027647016943407,-0.0004322531189565439
211.0,-0.0015740633040531105,0.0014820865638028344,3.924180913209593e-05
211.5,-0.001949883337068185,0.00110626653078776,-0.0002485629161935261
212.0,-0.0017965265099612307,0.0012596233578947142,-1.1268183041500835e-05
212.5,-0.0019959853484665608,0.001060164519389384,-0.00013077906688549576
213.0,-0.0024281557947902358,0.0006279940730657091,-0.00048689774934130865
213.5,-0.0021474090992930463,0.0009087407685628985,-0.0001338961752646189
214.0,-0.002454461554678424,0.0006016883131775208,-0.0003723865310953558
214.5,-0.002540632803832516,0.000515517064023429,-0.0003935802725683402
215.0,-0.002281502852079418,0.0007746470157765271,-7.294582988713583e-05
215.5,-0.0022437725958178714,0.0008123772720380735,2.2930199979553315e-05
216.0,-0.00237880943657508,0.000677340431280865,-5.7203193203263746e-05
216.5,-0.0023008943864687966,0.0007552554813871483,7.249086197421762e-05
217.0,-0.002336466282121831,0.000719683585734114,8.56923391193621e-05
217.5,-0.0023730349652539276,0.0006831149026020173,9.501060295856792e-05
218.0,-0.002655947239424841,0.0004002026284311037,-0.00014478204220106435
218.5,-0.003056149867855945,0.0,-0.0005045138090420548
219.0,-0.002986404309885082,6.974555797086305e-05,-0.000396828586310597
219.5,-0.002754145522520452,0.00030200434533549265,-0.00012904512703035493
220.0,-0.002555661609298955,0.0005004882585569899,0.00010266295153510456
