wavelength,absorbance,absorbance_bk,residual_3gauss
117.0,0.79355932249006,0.7880704546319899,-0.0009981223812308704
117.5,0.7869856810881409,0.7814968132300708,-0.0009209277107897762
118.0,0.7770649914387554,0.7715761235806853,-0.003350519698667953
118.5,0.7719495704229613,0.7664607025648912,-0.00016380697048246073
119.0,0.7636763523421125,0.7581874844840424,0.0006432895213164258
119.5,0.7518197695692365,0.7463309017111663,-0.0013913702574456233
120.0,0.7471389421799168,0.7416500743218467,0.00445092301400607
120.5,0.7327704616708318,0.7272815938127617,0.0012623510924378856
121.0,0.7206744963366282,0.715185628478558,0.0009544686970635041
121.5,0.7112527346605894,0.7057638668025192,0.003875894495955823
122.0,0.6977330455809545,0.6922441777228844,0.0031966701365470085
122.5,0.6829777386735327,0.6774888708154626,0.0017161718600489095
123.0,0.6683057962260177,0.6628169283679476,0.0006849517219490453
123.5,0.65311919426175,0.6476303264036799,-0.0005693651359131024
124.0,0.6384490014697591,0.632960133611689,-0.0010964237067664362
124.5,0.6244921291951611,0.6190032613370909,-0.0007868293860320286
125.0,0.6081570021144134,0.6026681342563432,-0.002826889041140146
125.5,0.5929693962468118,0.5874805283887417,-0.0037931229982793857
126.0,0.5795947144077488,0.5741058465496787,-0.0031302380254221163
126.5,0.5661018222499448,0.5606129543918746,-0.0028873922195463697
127.0,0.5533635986799426,0.5478747308218724,-0.002317546881425825
127.5,0.5408608540095868,0.5353719861515167,-0.0020731972174129476
128.0,0.5296016266904215,0.5241127588323514,-0.0012864146676215826
128.5,0.5197437936412812,0.5142549257832111,5.478931771829565e-05
129.0,0.5106477500746612,0.5051588822165911,0.0011605846236816264
129.5,0.5023887353909536,0.49689986753288357,0.001953547851950399
130.0,0.4956860969487039,0.49019722909063385,0.0030003134010999077
130.5,0.48972265209487287,0.4842337842368028,0.0033338236685771516
131.0,0.48501872715745137,0.4795298592993813,0.003330749071709882
131.5,0.4817135839189586,0.4762247160608885,0.0029967555283643144
132.0,0.4801045723931344,0.47461570453506435,0.0025098973685508397
132.5,0.48079789256414657,0.4753090247060765,0.002375927482188289
133.0,0.48246058181002666,0.4769717139519566,0.001185019933781506
133.5,0.48625795983576486,0.4807690919776948,5.3985785917198825e-05
134.0,0.4923885441061761,0.48689967624810604,-0.0008341826257559082
134.5,0.4997860844255647,0.49429721656749465,-0.0025239898165444474
135.0,0.5095163035696073,0.5040274357115372,-0.0038869651494167767
135.5,0.5214400160842435,0.5159511482261734,-0.004955589207792821
136.0,0.5359580102028343,0.5304691423447642,-0.005176450371240149
136.5,0.552673538325807,0.5471846704677369,-0.0047469880589972036
137.0,0.5710626052323892,0.565573737374319,-0.003945809144753731
137.5,0.5917578723257876,0.5862690044677175,-0.0018508976649382891
138.0,0.6131064883517864,0.6076176204937163,0.00021450139412571012
138.2,0.6222455188697856,0.6167566510117155,0.0015296703817800905
138.4,0.6304517844860538,0.6249629166279836,0.0018855096957217654
138.6,0.6388046885623024,0.6333158207042323,0.0023867478843386802
138.8,0.6470466103258884,0.6415577424678183,0.002801638904233239
139.0,0.6550868079439981,0.649597940085928,0.0030657707782389965
139.2,0.6628816754649841,0.657392807606914,0.0031622226399000697
139.4,0.6704627249479267,0.6649738570898566,0.0031494418386541767
139.6,0.6776305013422237,0.6721416334841536,0.002855049062258974
139.8,0.684862732573908,0.6793738647158378,0.0027838743686037226
140.0,0.6919001599454994,0.6864112920874292,0.0027036697089086736
140.2,0.6983562624636748,0.6928673946056046,0.002254712070390741
140.4,0.7045582211786159,0.6990693533205458,0.0017906438736930985
140.6,0.7103251899482679,0.7048363220901978,0.0011566176262230998
140.8,0.7157535263749554,0.7102646585168852,0.00047439920222314136
141.0,0.7208656092450979,0.7153767413870278,-0.0002089432618130882
141.2,0.7257329805042316,0.7202441126461615,-0.0007980261328406346
141.4,0.7302544161584794,0.7247655483004093,-0.0013712075929754874
141.6,0.7343059592840435,0.7288170914259734,-0.0020306815600096284
141.8,0.7387205395556425,0.7332316716975724,-0.0019229830194024133
142.0,0.7421778123841002,0.7366889445260301,-0.002349270861324304
142.2,0.7455685586991149,0.7400796908410447,-0.00240104634190208
142.4,0.7486078691230371,0.743119001264967,-0.0023470825507254656
142.6,0.7510452968881518,0.7455564290300817,-0.002423379634507117
142.8,0.7535711741041203,0.7480823062460502,-0.0019269502493183266
143.0,0.7553441545333733,0.7498552866753032,-0.0016883711422185366
143.2,0.7568161274108641,0.751327259552794,-0.0012469553676504042
143.4,0.7574387518997734,0.7519498840417033,-0.0011442945764866819
143.6,0.7577292307765168,0.7522403629184466,-0.0008585518072408149
143.8,0.757745266948872,0.7522563990908019,-0.00032956019877927734
144.0,0.7567621830955072,0.7512733152374371,-0.00028174636801081565
144.2,0.7556426995921014,0.7501538317340313,0.00014561766239273854
144.4,0.7536091621871996,0.7481202943291295,0.000170626369197735
144.6,0.7506251905157485,0.7451363226576784,-0.00024961156864278244
144.8,0.7478765585769904,0.7423876907189203,6.19221756789079e-05
145.0,0.7447245670934478,0.7392356992353777,0.00045555942630881585
145.2,0.7407996512710654,0.7353107834129953,0.0005486019297092914
145.4,0.7365918319436672,0.731102964085597,0.0008158388778759518
145.6,0.7318237953249122,0.726334927466842,0.0009627111600554183
145.8,0.7269477202592409,0.7214588524011708,0.0014222414877299583
146.0,0.7214845255518176,0.7159956576937475,0.0016944030506832464
146.2,0.7153390301722571,0.709850162314187,0.0016614193798885069
146.4,0.7090432757400348,0.7035544078819647,0.001831244488396666
146.6,0.702519024387627,0.6970301565295569,0.002100235812603768
146.8,0.6950664448603772,0.689577577002307,0.0017420319849902333
147.0,0.6874871731828704,0.6819983053248003,0.0015308206714756967
147.2,0.6794700329678102,0.67398116510974,0.0011272801732228332
147.4,0.6709746086614261,0.665485740803356,0.0004623864245676401
147.6,0.6620274183210929,0.6565385504630228,-0.00046616996721460247
147.8,0.6530195577059189,0.6475306898478488,-0.0012960870929500379
148.0,0.6440005393003617,0.6385116714422916,-0.0020063544097154162
148.2,0.6351294561831028,0.6296405883250327,-0.0024658275557754017
148.4,0.6266755963815599,0.6211867285234898,-0.002432352665077908
148.6,0.6183214462470258,0.6128325783889557,-0.002249504838901961
148.8,0.6103264624325135,0.6048375945744434,-0.0016825645456177707
149.0,0.6024592839952897,0.5969704161372196,-0.000986063894093725
149.2,0.5947520644682782,0.5892631966102081,-0.00014922646582515853
149.4,0.5869620070453537,0.5814731391872836,0.0005657789066519925
149.6,0.5789184280793239,0.5734295602212538,0.0009710921415819751
149.8,0.5710890166660254,0.5656001488079553,0.0015195881188343474
150.0,0.5626972254979619,0.5572083576398917,0.0014224071360576795
150.5,0.5423871499127845,0.5368982820547143,0.0014273979074137522
151.0,0.5222331464963351,0.516744278638265,0.0009371390175503258
151.5,0.5019907514909275,0.49650188363285747,-0.0002650169332260588
152.0,0.4822704006529413,0.47678153279487123,-0.0014432042829532477
152.5,0.4639274667738228,0.4584385989157527,-0.001535511810518253
153.0,0.4465678607714438,0.4410789929133737,-0.0006726432703786367
153.5,0.42907958778966954,0.42359071993159947,0.0003236636258787118
154.0,0.4105170644461272,0.4050281965880571,0.0007920613156111589
154.5,0.39057543148382784,0.38508656362575777,0.0006733462366363963
155.0,0.36966915007380535,0.3641802822157353,0.0005601592202566508
155.5,0.3476325468904363,0.34214367903236625,0.000375289061018913
156.0,0.3242316352537563,0.31874276739568624,-0.00012982199862859867
156.5,0.29985670622305166,0.2943678383649816,-0.0006856180143565149
157.0,0.2757740992420419,0.2702852313839718,-0.00024551285149410074
157.5,0.25133093171459164,0.24584206385652158,0.00023519452196821278
158.0,0.22662832000829627,0.2211394521502262,0.0004960465850534779
158.5,0.2024025749912945,0.19691370713322442,0.0008805269058021203
159.0,0.1782374749382243,0.17274860708015424,0.0005775699927488553
159.5,0.15508230427100883,0.14959343641293876,0.0001671887602350819
160.0,0.1331825208740682,0.12769365301599814,-0.00042545699054238884
160.5,0.1130547886193953,0.10756592076132523,-0.0009376461428420857
161.0,0.09489981369444739,0.08941094583637732,-0.001345877261301906
161.5,0.07895195595111137,0.0734630880930413,-0.001512987721170575
162.0,0.06527485893416031,0.05978599107609024,-0.001395717040720744
162.5,0.05380575040768433,0.04831688254961426,-0.0010088357903948186
163.0,0.04433208805974968,0.038843220201679615,-0.00046059593170791335
163.5,0.036759398665304685,0.03127053080723462,0.00030101846757858014
164.0,0.03067906101794209,0.025190193159872018,0.001041556531326919
164.5,0.025862823680295986,0.02037395582222592,0.001720975742707069
165.0,0.0218524652184814,0.016363597360411333,0.0020714823286617622
165.5,0.01906015237346536,0.01357128451539529,0.0026884569137266452
166.0,0.016241574567318583,0.010752706709248513,0.0024967510248162725
166.5,0.014309029094743348,0.008820161236673278,0.002559441896899591
167.0,0.012754123171833534,0.007265255313763465,0.002498414034245046
167.5,0.011306395900746264,0.005817528042676195,0.0021526490308479444
168.0,0.010486344427421124,0.004997476569351055,0.0021322407063146184
168.5,0.009834635712883108,0.0043457678548130384,0.0020494656293304097
169.0,0.009473409432770889,0.003984541574700819,0.0020824207561912465
169.5,0.009152193390096857,0.0036633255320267875,0.0020234357419892613
170.0,0.008973349647225539,0.0034844817891554695,0.002006950483596876
170.5,0.008736315593042965,0.0032474477349728956,0.0018559750816180118
171.0,0.008571225170349616,0.003082357312279547,0.0017176382854253115
171.5,0.008577256550212561,0.003088388692142492,0.0017031435147745284
172.0,0.008673283154202542,0.003184415296132472,0.0017397181498487809
172.5,0.008342633461791902,0.0028537656037218324,0.0013163922187558947
173.0,0.00831293705163444,0.0028240691935643696,0.001164625341533115
173.5,0.0084216114076077,0.0029327435495376305,0.0011243805475697939
174.0,0.008250219889307306,0.0027613520312372367,0.0007789169567050352
174.5,0.008236914400861512,0.0027480465427914425,0.0005675511165961302
175.0,0.008354255193877955,0.0028653873358078855,0.0004637092356832729
175.5,0.00856199140033427,0.003073123542264201,0.0004278772615481218
176.0,0.008764371331360342,0.0032755034732902723,0.00036503539968495147
176.5,0.009035480703627655,0.003546612845557585,0.00035008794800970525
177.0,0.00898061186983579,0.00349174401176572,-1.069959835948986e-05
177.5,0.009690467031899063,0.004201599173828993,0.00037455278321180596
178.0,0.009737810196743756,0.004248942338673687,8.002782811865686e-05
178.5,0.010231547796286145,0.004742679938216076,0.00021631634561629712
179.0,0.010146644331778918,0.004657776473708849,-0.0002396524651817212
179.5,0.010388060737248652,0.0048991928791785825,-0.00038066724682362437
180.0,0.01058410888193776,0.005095241023867691,-0.0005758833908431384
180.5,0.010946649155698719,0.005457781297628649,-0.0006106373871306416
181.0,0.011145817885172231,0.005656950027102162,-0.0008117396069517611
181.5,0.01140175411198741,0.005912886253917341,-0.0009557756656977424
182.0,0.011620037373836156,0.006131169515766087,-0.0011337042790689937
182.5,0.01187372211320066,0.006384854255130591,-0.0012688653823654432
183.0,0.01227598798682376,0.006787120128753691,-0.001244378455216603
183.5,0.01249214802095448,0.00700328016288441,-0.001391188139289113
184.0,0.012918101034016643,0.007429233175946574,-0.0013096695860101634
184.5,0.013571765181261436,0.008082897323191366,-0.00097825538450288
185.0,0.013950513518143644,0.008461645660073574,-0.0008960617531443543
185.5,0.014284138792657716,0.008795270934587646,-0.0008299852771194351
186.0,0.01456057333895712,0.00907170548088705,-0.0007890427677821436
186.5,0.014940864085589112,0.009451996227519043,-0.0006094526813353734
187.0,0.015477633909489056,0.009988766051418987,-0.0002362253685079911
187.5,0.01571559092904671,0.01022672307097664,-0.00012269916597987957
188.0,0.016001123451900075,0.010512255593830006,7.901663366980706e-05
188.5,0.016571040383045348,0.011082172524975278,0.0006067527953261508
189.0,0.016639465600535055,0.011150597742464985,0.0006751544733078554
189.5,0.01675523130734574,0.011266363449275672,0.0008330644410993321
190.0,0.016907109195869453,0.011418241337799383,0.0010687543481857718
190.5,0.01670738041076988,0.011218512552699811,0.000993504994570231
191.0,0.016370350043307575,0.010881482185237506,0.000820141072863205
191.5,0.01635619623270169,0.010867328374631622,0.0010069098926051689
192.0,0.01626099941231269,0.01077213155424262,0.0011475488062796524
192.5,0.01638514843446959,0.010896280576399521,0.0015397370243964252
193.0,0.016057765216192333,0.010568897358122263,0.0015095722243939642
193.5,0.01579171553172378,0.010302847673653711,0.00156663819393856
194.0,0.01535547136720145,0.009866603509131381,0.0014759274383238825
194.5,0.014920877902724828,0.009432010044654758,0.001405670281198472
195.0,0.01386601572901136,0.008377147870941291,0.000730259529574305
195.5,0.013276386544327112,0.007787518686257043,0.0005314974608565271
196.0,0.01203540002958676,0.0065465321715166905,-0.00031085856489200623
196.5,0.011435717882263524,0.005946850024193455,-0.0005076971484180666
197.0,0.010940973353122264,0.005452105495052194,-0.0005987833016881158
197.5,0.01015530077928483,0.004666432921214761,-0.00098318471475989
198.0,0.009927225424840121,0.0044383575667700514,-0.0008153442210444128
198.5,0.009213175086322809,0.0037243072282527392,-0.0011415374775660637
199.0,0.008666089885389267,0.0031772220273191976,-0.001311239691530369
199.5,0.008199131931874723,0.002710264073804654,-0.001413399750044694
200.0,0.007965072483138255,0.0024762046250681857,-0.001297043967184719
200.5,0.007565594678473364,0.002076726820403294,-0.0013619710294555183
201.0,0.007153062816400617,0.0016641949583305476,-0.0014569866758192339
201.5,0.007125640038320624,0.0016367721802505548,-0.0011847956248642274
202.0,0.006891289402526775,0.0014024215444567055,-0.0011380150432501947
202.5,0.006649912985037509,0.0011610451269674395,-0.0011170541299831954
203.0,0.0066339922763294845,0.001145124418259415,-0.0008894957216657048
203.5,0.006625697288690161,0.0011368294306200915,-0.000673011670192857
204.0,0.006463517078298554,0.0009746492202284841,-0.0006287584731615521
204.5,0.006574230333480911,0.0010853624754108412,-0.0003294337310543595
205.0,0.006438229547226367,0.0009493616891562973,-0.00029397919889261417
205.5,0.00661799224520178,0.0011291243871317108,4.086367782249966e-05
206.0,0.00659132731583079,0.00110245945776072,0.00015377434234447153
206.5,0.006597827910639164,0.001108960052569094,0.00028528174955112545
207.0,0.006486724581100275,0.0009978567230302052,0.00028559506362908055
207.5,0.0064796227785244576,0.000990754920454388,0.00037732082763386075
208.0,0.006764213034878142,0.0012753451768080723,0.000749155102861039
208.5,0.0068111725567415295,0.00132230469867146,0.0008727694063167149
209.0,0.006755214418004999,0.0012663465599349298,0.0008838466524548371
209.5,0.0067498481522775535,0.001260980294207484,0.0009368308550478496
210.0,0.006655457668417352,0.0011665898103472823,0.0008929964124805424
210.5,0.00669931669229575,0.00121044883422568,0.000980457035415677
211.0,0.006345996948054614,0.0008571290899845449,0.0006645693527140208
211.5,0.006293648536792371,0.0008047806787223012,0.0006442104532590593
212.0,0.005980791121298731,0.0004919232632286611,0.00035856775859571767
212.5,0.005864115682626886,0.0003752478245568165,0.00026494077347300463
213.0,0.006031907786653504,0.0005430399285834345,0.000452165436001066
213.5,0.005597882313428386,0.00010901445535831632,3.445081202775889e-05
214.0,0.005748251675765053,0.0002593838176949831,0.0001984499649430265
214.5,0.005598923962310385,0.00011005610424031503,6.046125733995758e-05
215.0,0.005696998393449108,0.0002081305353790388,0.00016792731284707535
215.5,0.005570213294062918,8.134543599284862e-05,4.8886702182991087e-05
216.0,0.005535986544539676,4.711868646960649e-05,2.1018195344582576e-05
216.5,0.005644315981284624,0.00015544812321455475,0.00013454495184737943
217.0,0.005618880439041967,0.00013001258097189786,0.00011333926121619244
217.5,0.00571014755281518,0.00022127969474511084,0.00020803388924994055
218.0,0.0056259099440826,0.00013704208601253084,0.0001265616086487637
218.5,0.0055598000324558975,7.093217438582794e-05,6.267312331755383e-05
219.0,0.005510229020222975,2.136116215290581e-05,1.4878914262687203e-05
219.5,0.005516309870256783,2.7442012186713362e-05,2.2374818383487493e-05
220.0,0.0054888678580700696,0.0,-3.945079788266107e-06
