wavelength,absorbance,absorbance_bk,residual_3gauss
117.0,0.11020434478034638,0.109114318650286,-0.0005618282046136319
117.5,0.10951056334075186,0.10842053721069148,-0.0014198829067666174
118.0,0.11091934303103795,0.10982931690097757,4.7852744359949684e-05
118.5,0.1103826160291107,0.10929258989905032,-0.00020816619617886056
119.0,0.11007623456098849,0.1089862084309281,-1.522668977979591e-05
119.5,0.10950791660080236,0.10841789047074198,0.00012954903399987894
120.0,0.10965331314943964,0.10856328701937926,0.001195236394033572
120.5,0.10850575555291264,0.10741572942285225,0.0011668249674164216
121.0,0.10626283609781692,0.10517280996775653,0.00023177088486527053
121.5,0.10568425270043964,0.10459422657037926,0.001137815196664796
122.0,0.10348733233745956,0.10239730620739917,0.0005884824768333519
122.5,0.1018844078669884,0.10079438173692801,0.0007804344349874176
123.0,0.10008426584937856,0.09899423971931817,0.0009048969220470937
123.5,0.09749309203768265,0.09640306590762227,0.0003485885843368397
124.0,0.0944724970093735,0.09338247087931312,-0.0005482638312276356
124.5,0.0921062119975848,0.09101618586752441,-0.0007252298725685252
125.0,0.08974345962129378,0.08865343349123339,-0.0008582900574241742
125.5,0.0872810321278685,0.08619100599780812,-0.0010777223433617172
126.0,0.08539105949111933,0.08430103336105894,-0.0007402710811116875
126.5,0.08311553035288542,0.08202550422282504,-0.0008345275328833363
127.0,0.08062957009020667,0.07953954396014629,-0.001217509012696183
127.5,0.07855265583335022,0.07746262970328983,-0.0013032477662657943
128.0,0.0772042601286161,0.07611423399855571,-0.0008068888830129461
128.5,0.07562831221545414,0.07453828608539376,-0.0007198998420983038
129.0,0.07487303098009784,0.07378300485003746,-2.9830416773637958e-05
129.5,0.07387178658753625,0.07278176045747586,0.00016103936557830545
130.0,0.07306542271022484,0.07197539658016446,0.00025859777973347153
130.5,0.07279703224285156,0.07170700611279117,0.0005723386392417762
131.0,0.07327988420933622,0.07218985807927583,0.001284030133711228
131.5,0.0732909336798415,0.07220090754978112,0.001142037660007894
132.0,0.0736614562891454,0.07257143015908502,0.0009528277568388033
132.5,0.0748080003910282,0.07371797426096781,0.001112826434360989
133.0,0.075972145277965,0.07488211914790462,0.0008490953852837574
133.5,0.07790319859513423,0.07681317246507384,0.0009029294305975127
134.0,0.07990330545308913,0.07881327932302874,0.000575813793252028
134.5,0.0822800747576934,0.08119004862763302,0.0001828097078332841
135.0,0.08516172555190131,0.08407169942184092,-0.00013166759216196033
135.5,0.0886806350128935,0.08759060888283311,-0.00020983572430345598
136.0,0.09245872366108168,0.0913686975310213,-0.00039489840227067974
136.5,0.09625427190886787,0.09516424577880749,-0.00088420434896469
137.0,0.10082301362083808,0.09973298749077769,-0.0008683939174542465
137.5,0.10608609701464838,0.104996070884588,-0.00036396325791361595
138.0,0.11112973058595828,0.11003970445589789,-0.0002144393707647907
138.2,0.11202422988617464,0.11093420375611425,-0.0012984491762585981
138.4,0.11458590021758404,0.11349587408752365,-0.0007194987152565474
138.6,0.11658445643938116,0.11549443030932077,-0.0007025564651051419
138.8,0.11910469539782433,0.11801466926776394,-0.00015740378725309645
139.0,0.12130314007025318,0.1202131139401928,7.799083168970322e-05
139.2,0.12331920960365383,0.12222918347359345,0.00014862250699645974
139.4,0.1254485541096425,0.12435852797958212,0.0003557645814990934
139.6,0.12752405238487755,0.12643402625481714,0.00053794539362928
139.8,0.12955400365360728,0.12846397752354688,0.0007091183649464428
140.0,0.13098837130573163,0.12989834517567123,0.00032488346622863706
140.2,0.13326678609589898,0.13217675996583858,0.0008304676181804527
140.4,0.1345271674027067,0.1334371412726463,0.0003693227207891836
140.6,0.1359488054668009,0.1348587793367405,0.0001261843290712994
140.8,0.13779355493040332,0.13670352880034292,0.00036824140027463814
141.0,0.13910090399289493,0.13801087786283453,0.0001401815329263867
141.2,0.14019598974063305,0.13910596361057265,-0.00022781763546153577
141.4,0.1412016623947721,0.1401116362647117,-0.0006080480170049252
141.6,0.14265763684595584,0.14156761071589544,-0.00045614316587244685
141.8,0.14369022296411288,0.14260019683405248,-0.0006413712704119168
142.0,0.14461643699309076,0.14352641086303036,-0.0008425466171948781
142.2,0.1460907431556099,0.1450007170255495,-0.0004013102813010261
142.4,0.14714898489833084,0.14605895876827044,-0.00027822049062292686
142.6,0.1476599791220048,0.1465699529919444,-0.0006011791944521561
142.8,0.1486365663558178,0.1475465402257574,-0.00035440174994363915
143.0,0.14902744857419545,0.14793742244413505,-0.0005865978981578202
143.2,0.1496282377928105,0.1485382116627501,-0.0004999407599549366
143.4,0.1505737653774527,0.1494837392473923,4.22262180737043e-05
143.6,0.15081387173195868,0.14972384560189828,-8.835826688369242e-06
143.8,0.15118704634167704,0.15009702021161664,0.00018636571181393502
144.0,0.15149378254812534,0.15040375641806494,0.00042889828988065815
144.2,0.15126011007123843,0.15017008394117803,0.0002449272582651374
144.4,0.1514336162181442,0.1503435900880838,0.0005817296600068578
144.6,0.15115509795446444,0.15006507182440404,0.0005793411119345837
144.8,0.15062646424378692,0.14953643811372652,0.00043845533052042085
145.0,0.15032069236888648,0.14923066623882608,0.0006303801703245737
145.2,0.1497170583751078,0.1486270322450474,0.0006322704679833091
145.4,0.14867102443642313,0.14758099830636273,0.00029702064050340926
145.6,0.14851161891685774,0.14742159278679734,0.0009506529519085205
145.8,0.14748356518323524,0.14639353905317484,0.0008344576355968081
146.0,0.1466217184627834,0.145531692332723,0.0009794442839103634
146.2,0.14538978581252018,0.14429975968245978,0.0008450796724556453
146.4,0.1440333707526502,0.1429433446225898,0.0006723536503923377
146.6,0.14252717858384006,0.14143715245377966,0.00043100916933536126
146.8,0.14130593672721595,0.14021591059715555,0.0005504908114650486
147.0,0.13981398864919528,0.13872396251913488,0.0004695703647450422
147.2,0.13813316157221284,0.13704313544215244,0.00026424959121801317
147.4,0.13588840629189447,0.13479838016183407,-0.00044656159182687727
147.6,0.13444830388092172,0.13335827775086131,-0.00030049688845379396
147.8,0.13270729889940633,0.13161727276934593,-0.0004094559436122469
148.0,0.130864990545189,0.1297749644151286,-0.000580266034593574
148.2,0.12889067833892606,0.12780065220886566,-0.0008500868618038782
148.4,0.12662978962590685,0.12553976349584645,-0.001379931540443774
148.6,0.12559606604219412,0.12450603991213373,-0.0006624270904794088
148.8,0.12354255319963393,0.12245252706957355,-0.0009507706755769313
149.0,0.12181461798005912,0.12072459184999873,-0.0009056577634249385
149.2,0.12025372473795634,0.11916369860789595,-0.0006914515240666885
149.4,0.11846195617083324,0.11737193004077286,-0.0007116083700051262
149.6,0.11696686223697948,0.1158768361069191,-0.00044377696067104955
149.8,0.11559511952891247,0.11450509339885208,-6.608899503383892e-05
150.0,0.11346338810886736,0.11237336197880697,-0.0004662555367113824
150.5,0.11010874062006085,0.10901871449000046,0.0004055976343453893
151.0,0.10607052895333464,0.10498050282327426,0.0004133603095973215
151.5,0.10207763738088876,0.10098761125082838,0.00026280361377818695
152.0,0.09875130994096906,0.09766128381090868,0.0005760292815923246
152.5,0.09482499457105752,0.09373496844099713,0.0001105286737694694
153.0,0.09202075961863389,0.0909307334885735,0.0006328206632345151
153.5,0.08842024662430259,0.0873302204942422,0.0002847510926771296
154.0,0.08548307402321728,0.0843930478931569,0.0005957062594676571
154.5,0.08204043631971486,0.08095041018965447,0.00046902205702786803
155.0,0.07846634250551769,0.0773763163754573,0.00034571774979255676
155.5,0.07444714846632942,0.07335712233626904,-3.303502891159604e-05
156.0,0.07048578031394258,0.06939575418388219,-0.0001275781719044522
156.5,0.06604009026311713,0.06495006413305675,-0.0004655117271978315
157.0,0.06180018817832513,0.06071016204826474,-0.00036626016096198005
157.5,0.05731366240045808,0.056223636270397684,-0.0003153883614600353
158.0,0.05275586115147061,0.051665835021410214,-0.00019161227393732494
158.5,0.04823484306727137,0.047144816937210975,4.2734370254683685e-05
159.0,0.043204150636200735,0.04211412450614034,-0.00023963655487009572
159.5,0.03867780378320607,0.03758777765314568,-0.000109459894828981
160.0,0.034191192935111074,0.03310116680505068,-0.00011359066578475047
160.5,0.02969836830738064,0.028608342177320247,-0.0003719978985562977
161.0,0.025843942844631217,0.024753916714570823,-0.0003013554124758032
161.5,0.0226348559949246,0.021544829864864206,5.9712232997499726e-05
162.0,0.019222965425747637,0.018132939295687243,-0.00016540575851663533
162.5,0.016501404559041064,0.015411378428980672,-9.51054622430128e-05
163.0,0.014559496343808641,0.013469470213748249,0.00036389925705360496
163.5,0.012180212941096795,0.011090186811036403,1.1638957780880227e-05
164.0,0.011245122231969556,0.010155096101909164,0.0007568666460164887
164.5,0.009845717973685,0.008755691843624607,0.0007252177090118321
165.0,0.0090600187715138,0.007969992641453408,0.001032754148213428
165.5,0.008399454431670275,0.007309428301609883,0.0012301508165190461
166.0,0.007277385836805747,0.006187359706745355,0.000769020490604698
166.5,0.007140278225075291,0.006050252095014899,0.0011314631969581374
167.0,0.006377287323806814,0.005287261193746422,0.0007385929290244335
167.5,0.00620239204611759,0.005112365916057198,0.0008321162849391234
168.0,0.005970151418819256,0.004880125288758864,0.0007899492284185365
168.5,0.0053173099422663935,0.004227283812206001,0.000267991339190218
169.0,0.005872547745383054,0.004782521615322662,0.0009102508652823072
169.5,0.005245572092084138,0.0041555459620237455,0.00033842630929088
170.0,0.00477811551288,0.003688089382819608,-9.656300671924412e-05
170.5,0.005263962664148795,0.0041739365340884025,0.0004059716694713774
171.0,0.005031899738261424,0.0039418736082010315,0.00017991464271388405
171.5,0.004926722446051156,0.0038366963159907636,7.376684117806802e-05
172.0,0.004562716342916192,0.0034726902128557995,-0.000295530908115764
172.5,0.004516143450021469,0.003426117319961077,-0.00034983663242625206
173.0,0.00461817987198271,0.003528153741922318,-0.00025665644116542024
173.5,0.004155076305965785,0.0030650501759053933,-0.0007288230436533162
174.0,0.004501913641312112,0.0034118875112517195,-0.0003906214833636415
174.5,0.004336044827518927,0.003246018697458535,-0.0005642616267706704
175.0,0.004043923336683459,0.002953897206623067,-0.0008629890156909487
175.5,0.004378809269760539,0.0032887831397001473,-0.0005333364222066279
176.0,0.0042874119746941055,0.0031973858446337133,-0.0006284520597984373
176.5,0.003979277008827199,0.002889250878766807,-0.0009386927116521791
177.0,0.004105502661028728,0.0030154765309683357,-0.0008128937045953125
177.5,0.0038996553315878064,0.002809629201527414,-0.0010174443970495922
178.0,0.003931378715049638,0.0028413525849892455,-0.000982672819423124
178.5,0.004109528555870363,0.003019502425809971,-0.0007997067278322609
179.0,0.003823431995931608,0.0027334058658712154,-0.0010792113976743492
179.5,0.003821530398634641,0.002731504268574249,-0.0010727448343541114
180.0,0.004172028332823261,0.0030820022027628685,-0.0007121074260732674
180.5,0.004160281921163766,0.003070255791103374,-0.0007119526395808857
181.0,0.004078451047945012,0.00298842491788462,-0.0007801341338162251
181.5,0.0039486808339650814,0.0028586547039046893,-0.0008945237961258518
182.0,0.0038721491831582426,0.00278212305309785,-0.0009539638368301871
182.5,0.0037702335993829855,0.0026802074693225934,-0.001037099702859276
183.0,0.0038196575095889246,0.0027296313795285325,-0.0009672335459840801
183.5,0.0036631613034006456,0.0025731351733402534,-0.001101653015944246
184.0,0.004038263457912642,0.00294823732785225,-0.0007028699959515661
184.5,0.004135474258999904,0.003045448128939512,-0.0005804067596795028
185.0,0.004128816489158651,0.0030387903590982585,-0.0005602751730539096
185.5,0.004286063990900707,0.0031960378608403145,-0.00037473802721334
186.0,0.00433956191668531,0.0032495357866249176,-0.00029148868851002104
186.5,0.0043414539107201,0.003251427780659708,-0.00025842381811261436
187.0,0.004679391811037789,0.0035893656809773966,0.00011206642856772869
187.5,0.0045326031827466395,0.0034425770526862473,-8.339656208467341e-07
188.0,0.004336036995317548,0.0032460108652571555,-0.0001622211017902834
188.5,0.004964308127970608,0.0038742819979102157,0.0005024734423428414
189.0,0.005130461873171053,0.004040435743110661,0.0007062472194532335
189.5,0.005196058102760992,0.0041060319727006,0.0008106111837030004
190.0,0.005302060364587966,0.0042120342345275735,0.0009564788936485061
190.5,0.005657921523361948,0.004567895393301556,0.0013532522604823884
191.0,0.005525953880233216,0.004435927750172824,0.001263191775858295
191.5,0.005395712169730759,0.004305686039670367,0.0011757996176688336
192.0,0.005000946432487151,0.003910920302426759,0.0008247726319185597
192.5,0.005866199670241688,0.004776173540181296,0.001734600096891573
193.0,0.006009787288882899,0.004919761158822507,0.0019235432750792435
193.5,0.005749495767167667,0.004659469637107275,0.0017093341902100533
194.0,0.0058227273100174195,0.004732701179957027,0.0018293203879897035
194.5,0.005454660803792837,0.004364634673732445,0.0015086259976657933
195.0,0.0052301072980067385,0.004140081167946346,0.001332007318596369
195.5,0.0050329527722803,0.003942926642219908,0.0011832956903553927
196.0,0.0049348767642379415,0.0038448506341775494,0.0011341162218077767
196.5,0.004446841869875726,0.003356815739815334,0.0006953773904365824
197.0,0.004654843905878974,0.0035648177758185818,0.0009530213011572195
197.5,0.0040262002900982,0.0029361741600378083,0.0003743121605990305
198.0,0.003974567281016286,0.0028845411509558936,0.000372853607471304
198.5,0.003772691259872804,0.0026826651298124116,0.00022134008247725158
199.0,0.0037145353489601873,0.0026245092188997947,0.00021368353110225733
199.5,0.0033410328405696207,0.0022510067105092285,-0.00010923308641962951
200.0,0.0033317064158541443,0.0022416802857937517,-6.793649885253371e-05
200.5,0.003101484495020546,0.002011458364960154,-0.00024754670015123947
201.0,0.003084461779246972,0.0019944356491865796,-0.0002140163378309
201.5,0.003080573043739688,0.0019905469136792956,-0.00016745685421347802
202.0,0.0025829937111614826,0.0014929675811010902,-0.0006147378514157144
202.5,0.003021365386368833,0.0019313392563084406,-0.00012626149922311133
203.0,0.0027160518960136055,0.001626025765953213,-0.0003817064423601187
203.5,0.0026491123289857366,0.0015590861989253442,-0.00039905471123053674
204.0,0.0024800170462966993,0.001389990916236307,-0.0005188756675633913
204.5,0.0025307182682238545,0.0014406921381634622,-0.00041925537716415787
205.0,0.0024228346936945224,0.00133280856363413,-0.00047861195479761216
205.5,0.0024350982140960886,0.0013450720840356963,-0.00041824881900663375
206.0,0.002278018230247711,0.0011879921001873184,-0.000527690348107948
206.5,0.00256769084062094,0.0014776647105605477,-0.0001908726692403963
207.0,0.0023106917591036264,0.001220665629043234,-0.00040125072212113624
207.5,0.0021456641702001815,0.001055638040139789,-0.0005202103895538539
208.0,0.0022901654360652,0.0012001393060048075,-0.00033022178021711694
208.5,0.002169889378414119,0.0010798632483537266,-0.0004056169406028939
209.0,0.0025019664156266845,0.0014119402855662922,-2.9289715692404697e-05
209.5,0.0021352660900679945,0.0010452399600076022,-0.0003523932232373508
210.0,0.002321698925746612,0.0012316727956862194,-0.00012303800141044772
210.5,0.0024121384029251675,0.0013221122728647751,9.629956915465851e-06
211.0,0.002231806782520144,0.0011417806524597516,-0.0001291849837703168
211.5,0.002347333692042247,0.0012573075619818545,2.713046867917489e-05
212.0,0.0022662750552049672,0.0011762489251445748,-1.3882555128003462e-05
212.5,0.0022170440923898996,0.0011270179623295072,-2.3824107470143225e-05
213.0,0.0017390310289447056,0.0006490048988843132,-0.0004633157398765816
213.5,0.001677573531343759,0.0005875474012833667,-0.00048703009431767786
214.0,0.001480615930566268,0.00039058980050587556,-0.0006470317096998793
214.5,0.0018937288958284768,0.0008037027657680845,-0.00019775738036107988
215.0,0.0021110301601386665,0.0010210040300782741,5.4904535072639016e-05
215.5,0.0012573222925619228,0.0001672961625015304,-0.000764248150472601
216.0,0.0012739461580495502,0.00018392002798915783,-0.0007138780309539084
216.5,0.0010900261300603924,0.0,-0.0008648629345234556
217.0,0.0011560060852340256,6.59799551736332e-05,-0.0007667599702852667
217.5,0.0012890307699268203,0.00019900463986642788,-0.0006024242045157545
218.0,0.0015986448616437975,0.0005086187315834051,-0.0002623096431467488
218.5,0.0016585397607904366,0.0005685136307300442,-0.00017272248492095044
219.0,0.0015904575466815047,0.0005004314166211124,-0.00021191721111980116
219.5,0.0013116281350278715,0.00022160200496747912,-0.0004626594744833113
220.0,0.001545109639481632,0.0004550835094212396,-0.00020188578458595508
