wavelength,absorbance,absorbance_bk,residual_3gauss
117.0,0.5379610697169124,0.5440862690654651,-0.0016451052405918043
117.5,0.5371664729736326,0.5432916723221853,-0.0007862922844180664
118.0,0.5330090131786521,0.5391342125272048,-0.0022752881965342198
118.5,0.5305292813032634,0.5366544806518161,-0.0010922627785783234
119.0,0.5287120134163201,0.5348372127648728,0.0017196560245019699
119.5,0.5230147629494512,0.5291399622980039,0.0015829496092314432
120.0,0.5148768961132797,0.5210020954618324,-0.00010539775468954016
120.5,0.5098482200798371,0.5159734194283898,0.002154625286755474
121.0,0.5019549380641778,0.5080801374127305,0.0023319024914137954
121.5,0.49241361615778495,0.4985388155063377,0.0015780395644820477
122.0,0.4833464544497748,0.4894716537983276,0.0019425114395081322
122.5,0.47406116659081293,0.4801863659393657,0.0026524159180877915
123.0,0.46314766182525285,0.4692728611738056,0.0022090364070652124
123.5,0.45103073296569607,0.45715593231424884,0.0009404308747800183
124.0,0.43808776375446706,0.44421296310301983,-0.0008809203976402613
124.5,0.42588056190397405,0.4320057612525268,-0.001806277023719105
125.0,0.4135251841213408,0.4196503834698936,-0.0028407135483066726
125.5,0.40220670896784194,0.4083319083163947,-0.0029281150939002853
126.0,0.3898655852843663,0.3959907846329191,-0.00426442474289862
126.5,0.3798812223365011,0.3860064216850539,-0.0036134318657308206
127.0,0.3697346635820932,0.375859862930646,-0.003643213188345318
127.5,0.3614752429626824,0.3676004423112352,-0.0024582821098527163
128.0,0.3533275776086138,0.35945277695716654,-0.0019910504179232458
128.5,0.3468542234933843,0.35297942284193706,-0.0008372408890572891
129.0,0.3417282549189556,0.34785345426750836,0.0005190344153804816
129.5,0.3376025895870804,0.34372778893563316,0.0015773617182017197
130.0,0.3349958175835712,0.341121016932124,0.002710028839567058
130.5,0.33396095349271704,0.3400861528412698,0.0038343333650380784
131.0,0.3336849588939767,0.33981015824252947,0.004015988393589465
131.5,0.33533305012994047,0.34145824947849324,0.0043175599938247156
132.0,0.33816303032925166,0.3442882296778044,0.003917067787165829
132.5,0.34242573257194725,0.3485509319205,0.003012702104292053
133.0,0.34875390600688894,0.3548791053554417,0.002215832823973418
133.5,0.3569269047638244,0.36305210411237715,0.001319494181747316
134.0,0.36670605725595257,0.37283125660450533,0.00013703491122568634
134.5,0.37816321990583424,0.384288419254387,-0.0011667553599987723
135.0,0.3914211412097657,0.39754634055831845,-0.0023336063980934907
135.5,0.40584472373785374,0.4119699230864065,-0.003819901288605765
136.0,0.42204319547843816,0.42816839482699093,-0.004795122434746613
136.5,0.439654917024306,0.44578011637285875,-0.005358998136914761
137.0,0.458591146449248,0.46471634579780075,-0.005301098906617119
137.5,0.4794185554779469,0.48554375482649964,-0.003723109381477685
138.0,0.5009645183500419,0.5070897176985946,-0.0014397170926745417
138.5,0.5225257982606528,0.5286509976092055,0.0012226035443393402
139.0,0.5429599766541992,0.5490851760027519,0.003508413059037818
139.5,0.5616569887860636,0.5677821881346163,0.005195309430947148
140.0,0.5776169279589753,0.5837421273075281,0.005661534758093945
140.5,0.5905889979461632,0.5967141972947159,0.0050143681314113175
141.0,0.6000719312971629,0.6061971306457156,0.0030799567962890295
141.5,0.6061113000552858,0.6122364994038385,0.00019036821806850401
142.0,0.6101363311610163,0.616261530509569,-0.001989156791609048
142.5,0.6124042700037896,0.6185294693523423,-0.003024335837473746
143.0,0.6124323190835698,0.6185575184321225,-0.003286969447323873
143.5,0.6105802876995523,0.616705487048105,-0.00237757014535267
144.0,0.6055802894591287,0.6117054888076814,-0.001598827892705712
144.5,0.5974052775141256,0.6035304768626784,-0.0010878213072648135
145.0,0.5871806421038659,0.5933058414524186,9.750625147053604e-05
145.5,0.5746680565500599,0.5807932558986126,0.0014669848372751426
146.0,0.5594120996745596,0.5655372990231123,0.0022526024974387493
146.5,0.5415830331056556,0.5477082324542083,0.00226199891381873
147.0,0.5216689249024099,0.5277941242509626,0.001584088737174083
147.5,0.49962644393454586,0.5057516432830986,-0.00024422076226293665
148.0,0.4771930313358573,0.48331823068441004,-0.0019080868619734126
148.5,0.4559923588366237,0.46211755818517647,-0.0021904558785024175
149.0,0.4362896716917989,0.44241487104035165,-0.0011978741109560653
149.5,0.41730942142269656,0.4234346207712493,-2.5168856892188174e-05
150.0,0.39889795782821047,0.40502315717676324,0.0009224851761913122
150.5,0.3807446642213452,0.38686986356989794,0.0011622251076052192
151.0,0.3628800030552325,0.36900520240378526,0.0006382225726746515
151.5,0.3458494143987157,0.35197461374726846,-0.0001034319694712682
152.0,0.3299675924421132,0.336092791790666,-0.0006655849843731354
152.5,0.3151268623771556,0.32125206172570836,-0.0010028008710708525
153.0,0.3020431038749944,0.30816830322354716,-0.00019195910939101557
153.5,0.2889139760527191,0.2950391754012719,0.00020530594038004057
154.0,0.2759736067357332,0.28209880608428595,0.0006741725214793326
154.5,0.2621697243945589,0.26829492374311165,0.0004001851697837955
155.0,0.248271273669774,0.25439647301832674,0.0003549423646405092
155.5,0.2335535611007936,0.23967876044934633,-3.705542833054576e-05
156.0,0.21846985306094033,0.22459505240949307,-0.00023985019534492058
156.5,0.20252118857555648,0.20864638792410922,-0.0007429193696013303
157.0,0.18681991057045683,0.19294510991900957,-0.0004975991054019524
157.5,0.1712678048814632,0.17739300423001594,0.00026756195016156004
158.0,0.15514381693627818,0.16126901628483092,0.000646546821510191
158.5,0.13885130624381958,0.14497650559237232,0.0008192127030154095
159.0,0.1228110836024404,0.12893628295099316,0.0009626924924321656
159.5,0.10676964787398596,0.1128948472225387,0.000578387699215227
160.0,0.09150746586727558,0.09763266521582832,0.00021763309387488883
160.5,0.0769169068403855,0.08304210618893824,-0.0004258086764023089
161.0,0.06329958437326473,0.06942478372181747,-0.001207680846862666
161.5,0.05107936343950532,0.057204562788058064,-0.0018138423817962088
162.0,0.04069748737830776,0.046822686726860505,-0.0018631058439089257
162.5,0.032076570282134995,0.038201769630687735,-0.0014451326803983852
163.0,0.0248239803847963,0.030949179733349045,-0.0009221140148770006
163.5,0.018729585050782583,0.024854784399335327,-0.00043833140439721377
164.0,0.014282999336167676,0.02040819868472042,0.0005885344090568491
164.5,0.010387910364100163,0.016513109712652907,0.0011728474306147794
165.0,0.007174621508414115,0.013299820856966859,0.0015651364712086606
165.5,0.004958238737007561,0.011083438085560305,0.0022028917240762315
166.0,0.003140211671973781,0.009265411020526524,0.002606109269607162
166.5,0.0013346740193917548,0.007459873367944498,0.0024991795248207153
167.0,0.000259916773996554,0.006385116122549298,0.0026994299093445638
167.5,-0.0005985298506835755,0.005526669497869168,0.002778645090176652
168.0,-0.0012710352273682451,0.004854164121184498,0.0027795017193590114
168.5,-0.001847878406279433,0.004277320942273311,0.0026719973081685494
169.0,-0.0023400195271262108,0.0037851798214265328,0.0024937138946222615
169.5,-0.0028317138743363768,0.0032934854742163668,0.0021985926249657346
170.0,-0.0027139959073521004,0.003411203441200643,0.002424991745538926
170.5,-0.003021856778972639,0.0031033425695801047,0.002160052994417936
171.0,-0.0034219946281974422,0.0027032047203553013,0.0017533933559160252
171.5,-0.0032557481651627313,0.0028694511833900122,0.0018754499222865555
172.0,-0.0036696063714187774,0.002455592977133966,0.0013880570268822836
172.5,-0.0035379956986805886,0.002587203649872155,0.001422550973559416
173.0,-0.0036467273334313695,0.002478472015121374,0.001197032796896489
173.5,-0.0036427180196627815,0.002482481328889962,0.001067197775605488
174.0,-0.003990127636229593,0.0021350717123231507,0.000570614513003415
174.5,-0.003956534414077018,0.002168664934475726,0.0004408587447522511
175.0,-0.0038753759202168367,0.002249823428335907,0.00034529751253926477
175.5,-0.003842976241623152,0.0022822231069295914,0.0001882235792465851
176.0,-0.003302161954504691,0.0028230373940480525,0.0005273539886280149
176.5,-0.0036083197107926986,0.002516879637760045,7.852764271073977e-06
177.0,-0.0037036475768771255,0.002421551771675618,-0.0003118647759498979
177.5,-0.003434229486808093,0.0026909698617446506,-0.0002771684910945044
178.0,-0.003431555358541447,0.0026936439900112964,-0.0005187083383713063
178.5,-0.0031230727561103937,0.00300212659244235,-0.0004629503012108789
179.0,-0.002908477349227212,0.0032167219993255317,-0.000508458372796452
179.5,-0.0028646403770886935,0.00326055897146405,-0.0007308193764363246
180.0,-0.0025914680900950694,0.003533731258457674,-0.0007285046857636551
180.5,-0.0022730967295488073,0.0038521026190039363,-0.00068407181591931
181.0,-0.002427535561279825,0.0036976637872729186,-0.0011138179974467424
181.5,-0.0017342756799861065,0.0043909236685666375,-0.0006954031355090318
182.0,-0.0013885000478328776,0.004736699300719866,-0.0006220773305273168
182.5,-0.0012832610875598439,0.0048419382609929,-0.0007848789791469902
183.0,-0.0012232742895974592,0.004901925058955285,-0.0009864515753867766
183.5,-0.0004868921113055416,0.005638307237247202,-0.0005030430993665279
184.0,-0.00048491394305418776,0.005640285405498556,-0.0007433433222081513
184.5,-0.00015517332981302936,0.0059700260187397144,-0.0006430997161278405
185.0,0.00020388075474869516,0.0063290801033014385,-0.0004987282201087571
185.5,5.5713761105588886e-05,0.0061809131096583324,-0.000844813098215675
186.0,0.0003775430556887967,0.00650274240424154,-0.0007022987709131359
186.5,0.0005642739437738404,0.006689473292326584,-0.0006745821101733288
187.0,0.0009148855006489097,0.007040084849201654,-0.0004611533104000058
187.5,0.0010401325863512811,0.0071653319349040245,-0.00044991837183081494
188.0,0.0012320292843390527,0.007357228632891797,-0.00034773740700610664
188.5,0.001360498324580405,0.0074856976731331485,-0.00028379371536329384
189.0,0.0017151935279908607,0.007840392876543605,3.221383655066003e-05
189.5,0.001969321136171492,0.008094520484724236,0.00027388133741652887
190.0,0.002103093461241215,0.00822829280979396,0.0004215469434744124
190.5,0.0020735644541895275,0.008198763802742271,0.0004321243328207344
191.0,0.0020124644022364185,0.008137663750789162,0.00043693976199313776
191.5,0.002182487221947916,0.008307686570500659,0.0006980261362297237
192.0,0.002014345704461497,0.00813954505301424,0.0006451892908794768
192.5,0.0018471432635911607,0.007972342612143904,0.0006163947771341497
193.0,0.001690246386688057,0.007815445735240801,0.0006196590033646157
193.5,0.0019547456781198558,0.0080799450266726,0.0010645321927209295
194.0,0.0019111308094641,0.008036330158016844,0.0012197979739354574
194.5,0.0015548200093177663,0.00768001935787051,0.0010790296876035596
195.0,0.0017908970528935147,0.007916096401446259,0.0015453557798002756
195.5,0.0012829062557623405,0.007408105604315084,0.0012802841779388317
196.0,0.0010661753275893436,0.007191374676142087,0.0013170548908533414
196.5,0.0007456179606224243,0.006870817309175168,0.0012584721059525524
197.0,0.00016963473784305954,0.006294834086395803,0.0009508337938565073
197.5,-0.0005808020429653654,0.005544397305587378,0.0004730438837782878
198.0,-0.0005987682811803107,0.005526431067372433,0.0007300178785145427
198.5,-0.0015461535263430657,0.004579045822209677,5.7940688838350324e-05
199.0,-0.0020010419461956004,0.004124157402357143,-0.00012309363007812976
199.5,-0.0025459117690851767,0.003579287579467567,-0.00039726346577787864
200.0,-0.003162242068252228,0.0029629572803005154,-0.0007476116129915681
200.5,-0.003705279590161253,0.0024199197583914906,-0.001030800423727086
201.0,-0.004129547937605602,0.001995651410947142,-0.001202612481684301
201.5,-0.0043015821079691735,0.00182361724058357,-0.0011306797554751892
202.0,-0.004591742902658356,0.0015334564458943873,-0.001186295633001403
202.5,-0.005037183332011281,0.0010880160165414625,-0.0014073817875556033
203.0,-0.005339248098110584,0.0007859512504421592,-0.0014958907331313626
203.5,-0.0053646163118476085,0.000760583036705135,-0.001318953958851999
204.0,-0.005672732325346921,0.0004524670232058225,-0.0014363202258479135
204.5,-0.00545020501703513,0.0006749943315176136,-0.0010347640449874978
205.0,-0.005473505919543594,0.0006516934290091494,-0.0008907943956660057
205.5,-0.005806900112453136,0.00031829923609960793,-0.0010685972760144573
206.0,-0.005605613292185913,0.0005195860563668303,-0.0007232151721701891
206.5,-0.005869829068302424,0.0002553702802503199,-0.000854557185824379
207.0,-0.005751572337453438,0.00037362701109930514,-0.0006142953823592917
207.5,-0.005880631939664016,0.0002445674088887278,-0.0006318003016577057
208.0,-0.00602489580383862,0.00010030354471412314,-0.000674488606169238
208.5,-0.005921978334802414,0.00020322101375032983,-0.0004794624192019359
209.0,-0.005835146843276294,0.00029005250527644987,-0.00030944698988621326
209.5,-0.005732727975323889,0.0003924713732288542,-0.0001322075110940194
210.0,-0.005689901354394098,0.00043529799415864545,-2.2352207155103352e-05
210.5,-0.005982013874020993,0.00014318547453175037,-0.00025465506552249694
211.0,-0.005847929491728125,0.0002772698568246183,-6.741302906992783e-05
211.5,-0.005621977297015236,0.0005032220515375071,0.00020559958481024992
212.0,-0.005950072537089198,0.00017512681146354594,-8.099526250526616e-05
212.5,-0.006091539620798172,3.3659727754571135e-05,-0.00018600666312825563
213.0,-0.0061251993485527435,0.0,-0.00018776538239012106
213.5,-0.005908406021892442,0.00021679332666030195,5.68365131014523e-05
214.0,-0.0055441738244755515,0.000581025524077192,0.0004452175505515752
214.5,-0.005657354894009309,0.0004678444545434344,0.000352927766655947
215.0,-0.005482441811152957,0.0006427575373997869,0.0005458458314813897
215.5,-0.005523689707586204,0.0006015096409665395,0.0005200570913220919
216.0,-0.005803388444841702,0.0003218109037110414,0.00025358199347631126
216.5,-0.005389360529458726,0.0007358388190940174,0.0006788791453790032
217.0,-0.005511039870261704,0.0006141594782910391,0.000566767825214448
217.5,-0.00548738653389411,0.0006378128146586337,0.0005985147168555813
218.0,-0.005253121542984094,0.0008720778055686497,0.0008396007605483558
218.5,-0.005395293139145699,0.0007299062094070444,0.0007031566402034802
219.0,-0.005188429977833719,0.0009367693707190245,0.0009148113907929099
219.5,-0.005072730107348826,0.0010524692412039174,0.0010345052314615986
220.0,-0.005171250878972589,0.0009539484695801547,0.0009393014424226319
