wavelength,absorbance,absorbance_bk,residual_3gauss
117.0,0.7899537559801325,0.7877385819283694,0.0015530493504944953
117.5,0.7776838457455315,0.7754686716937684,-0.006199908045906644
118.0,0.7774636924498644,0.7752485183981013,-0.0006994374306452666
118.5,0.7692369565807442,0.7670217825289811,-0.002035442484934369
119.0,0.765629394917824,0.7634142208660609,0.002377135624791693
119.5,0.7543424705533213,0.7521272965015582,0.0001918229344574085
120.0,0.7445367511249164,0.7423215770731533,0.0005138850223883606
120.5,0.7349263183981622,0.7327111443463992,0.0019945838577207775
121.0,0.7258477796818876,0.7236326056301245,0.004900005052524414
121.5,0.7116483851812812,0.7094332111295181,0.003498957532242275
122.0,0.697328160688681,0.6951129866369179,0.0027048563187557217
122.5,0.6822058249357889,0.6799906508840258,0.001741363363225723
123.0,0.6684540845707008,0.6662389105189377,0.00267739026103897
123.5,0.6519955975777522,0.6497804235259891,0.0013227706675821294
124.0,0.6334141395166306,0.6311989654648675,-0.001860839335872777
124.5,0.6172385125008665,0.6150233384491034,-0.0024762617453050195
125.0,0.5999900114272433,0.5977748373754802,-0.004143444652129347
125.5,0.5839392075433795,0.5817240334916164,-0.004742651494864081
126.0,0.5688803187526789,0.5666651447009158,-0.004639869350461456
126.5,0.5548875287223247,0.5526723546705616,-0.003930016164132022
127.0,0.5403523312108346,0.5381371571590715,-0.004398809256067948
127.5,0.5286578270147623,0.5264426529629992,-0.002847305984560622
128.0,0.5170276871247914,0.5148125130730283,-0.0022413442015317697
128.5,0.5076659228347397,0.5054507487829766,-0.0005696899755059937
129.0,0.4999547471201465,0.49773957306838335,0.0013564319847887973
129.5,0.493268955024798,0.49105378097303487,0.0027208768238866643
130.0,0.4879440626202245,0.48572888856846136,0.0036744291412722507
130.5,0.4845929076443853,0.48237773359262215,0.004655643570443624
131.0,0.48288976640380776,0.4806745923520446,0.005179677841805397
131.5,0.4828079734254152,0.48059279937365207,0.0050810189372845205
132.0,0.48421418030229046,0.48199900625052733,0.004113118544903649
132.5,0.4888567395279748,0.4866415654762117,0.0039422692137976445
133.0,0.49497350452863254,0.4927583304768694,0.0027608261122583633
133.5,0.5034962264284883,0.5012810523767253,0.0014967411861463997
134.0,0.5137635163916533,0.5115483423398902,-0.0004688558333565407
134.5,0.5268356716648228,0.5246204976130597,-0.001982977529706109
135.0,0.5411321937329401,0.538917019681177,-0.004480418480764414
135.5,0.5583904122811116,0.5561752382293486,-0.006023536171118615
136.0,0.5780053590812435,0.5757901850294804,-0.006962239663061753
136.5,0.599708359613304,0.597493185561541,-0.007256890954427719
137.0,0.6238188667468381,0.621603692695075,-0.006229717165260329
137.5,0.6493603275668726,0.6471451535151095,-0.004454004063933148
138.0,0.6761023704476302,0.6738871963958671,-0.0017187765873740712
138.2,0.6864604136789492,0.6842452396271861,-0.0009262593211407655
138.4,0.6974642820536341,0.695249108001871,0.0005797746945702675
138.6,0.7079161705372293,0.7057009964854662,0.0016330529724600806
138.8,0.7181009589255339,0.7158857848737709,0.0025502531333573275
139.0,0.7282669674606601,0.726051793408897,0.003611634248170126
139.2,0.7373195572179613,0.7351043831661982,0.0037545088430571694
139.4,0.7464019133032902,0.7441867392515271,0.004153894166499361
139.6,0.75546823802583,0.7532530639740669,0.004795570473506761
139.8,0.7637803920461074,0.7615652179943443,0.004972584944088587
140.0,0.7710830460908669,0.7688678720391038,0.00446026446940162
140.2,0.778210143060942,0.775994969009179,0.004122537794249759
140.4,0.7853192831812081,0.7831041091294451,0.004146180345315775
140.6,0.7908290523988111,0.788613878347048,0.0029780026462564724
140.8,0.7961731823491158,0.7939580082973527,0.0020788713459927166
141.0,0.8007362978132708,0.7985211237615077,0.0008593195005439647
141.2,0.8047667382712858,0.8025515642195227,-0.000407766563808476
141.4,0.8086521216033763,0.8064369475516132,-0.0013117150234899233
141.6,0.8121758143297304,0.8099606402779673,-0.0020477258421625066
141.8,0.814889800868185,0.8126746268164219,-0.0030441243490136882
142.0,0.8178080790418895,0.8155929049901264,-0.003269083136839046
142.2,0.8201663580563479,0.8179511840045848,-0.0034710353150901874
142.4,0.8219567717513084,0.8197415976995454,-0.003644065563047527
142.6,0.8232984773846773,0.8210833033329142,-0.003657407972180504
142.8,0.82470675208524,0.8224915780334769,-0.0029864377821534616
143.0,0.8251187334280254,0.8229035593762624,-0.002687009792435191
143.2,0.8249715463116114,0.8227563722598483,-0.002317400500405742
143.4,0.8240675100791234,0.8218523360273603,-0.002073159249126655
143.6,0.8228650474903216,0.8206498734385586,-0.0014962459981539
143.8,0.8212766691107822,0.8190614950590192,-0.0006770813701021394
144.0,0.8185725487641179,0.8163573747123548,-0.0003509925470525088
144.2,0.8154276558514085,0.8132124817996454,0.00014891156113550075
144.4,0.8115509694091381,0.809335795357375,0.0005209615088311859
144.6,0.8068010813456574,0.8045859072938943,0.0006105530464628472
144.8,0.8014693800158198,0.7992542059640567,0.0006933692591136742
145.0,0.7960428978827062,0.7938277238309431,0.0012382835228452738
145.2,0.7899405612347306,0.7877253871829675,0.001643681848539802
145.4,0.7828931040536127,0.7806779300018496,0.001617467231973202
145.6,0.7753786760618013,0.7731635020100383,0.0016127764638436126
145.8,0.7680009529571725,0.7657857789054094,0.002206217712783398
146.0,0.7600990479923946,0.7578838739406315,0.0027079282004697225
146.2,0.7511540870052871,0.748938912953524,0.0025683140687779993
146.4,0.7422988117688248,0.7400836377170618,0.002887837107635738
146.6,0.7323793666204785,0.7301641925687155,0.002479002884390069
146.8,0.7217187032898058,0.7195035292380427,0.0016299845312056638
147.0,0.7112222317068708,0.7090070576551077,0.0012105090441573152
147.2,0.7000028705206246,0.6977876964688615,0.0002971586074924648
147.4,0.6890450705920405,0.6868298965402774,-0.00016234131145265174
147.6,0.6770369464192499,0.6748217723674869,-0.001516713974424655
147.8,0.66576769231965,0.663552518267887,-0.0020134288237751985
148.0,0.6535608525133102,0.6513456784615471,-0.0033651377084717993
148.2,0.6428883571948049,0.6406731831430418,-0.0031353405915017785
148.4,0.6320646056842455,0.6298494316324824,-0.0030440027408956682
148.6,0.6214113545640687,0.6191961805123056,-0.002802368865073457
148.8,0.6109030589033252,0.6086878848515621,-0.002467329698581322
149.0,0.6015804050981883,0.5993652310464253,-0.0010276063148290104
149.2,0.5913292436325185,0.5891140695807554,-0.0006245478124083936
149.4,0.5816346352236315,0.5794194611718684,0.0002021670555102384
149.6,0.5720988222329318,0.5698836481811688,0.0010327321386925936
149.8,0.5621787686631418,0.5599635946113787,0.0013049593672040949
150.0,0.5524272336198468,0.5502120595680837,0.0015555284799376734
150.5,0.5288947143187211,0.5266795402669581,0.002120028264412488
151.0,0.5058050783778438,0.5035899043260808,0.0017584934834088406
151.5,0.4834652325435672,0.4812500584918041,0.0008007646560440618
152.0,0.46244199042764544,0.4602268163758823,-3.856592982309781e-05
152.5,0.44301587029515765,0.4408006962433945,-0.0002241289171126537
153.0,0.42487069503109975,0.4226555209793366,0.0002623584877464724
153.5,0.40648224285728046,0.4042670688055173,0.0002757480565385717
154.0,0.38788518780778064,0.3856700137560175,0.00023504014950309626
154.5,0.36838843279066175,0.3661732587388986,-0.00020116240369510985
155.0,0.3483210700134209,0.34610589596165775,-0.0004250164434263515
155.5,0.32710818554635607,0.32489301149459293,-0.0008326162186129138
156.0,0.30472453886301176,0.3025093648112486,-0.0013889662314900408
156.5,0.28184477450028356,0.2796296004485204,-0.0014842999841011562
157.0,0.2594002064036027,0.25718503235183954,-0.0003713454361062851
157.5,0.23626729115632183,0.23405211710455873,0.0005404764856662414
158.0,0.21283398334497244,0.21061880929320934,0.0012777340140033844
158.5,0.18941905258347744,0.18720387853171433,0.0017543326400368264
159.0,0.16602281201925043,0.16380763796748732,0.0015562469142005875
159.5,0.14358183025749047,0.14136665620572736,0.0012285477707153492
160.0,0.12197624082810932,0.1197610667763462,0.0003102121672868413
160.5,0.10219741483639416,0.09998224078463104,-0.00047777001454113455
161.0,0.0847976684722502,0.08258249442048708,-0.0007705093155266907
161.5,0.06832419834471856,0.06610902429295544,-0.0021214699580255764
162.0,0.05531220812603729,0.05309703407427417,-0.0020130715213820607
162.5,0.044540089877610885,0.04232491582584776,-0.0016112522684446143
163.0,0.035495007796346595,0.03327983374458347,-0.0013137286077121238
163.5,0.028858787047250336,0.026643612995487214,-0.0002800383145173564
164.0,0.023219355295988273,0.02100418124422515,0.00026372300808182036
164.5,0.019026287163465785,0.016811113111702664,0.0009655132487072435
165.0,0.015832493602938928,0.013617319551175806,0.001576383752547289
165.5,0.0134458827891304,0.011230708737367277,0.002092342990375447
166.0,0.011535995121651736,0.009320821069888616,0.0023541914622939256
166.5,0.010020498083310953,0.007805324031547832,0.002430024643667218
167.0,0.008848015918765523,0.006632841867002402,0.0023964650877895226
167.5,0.008420795726211896,0.006205621674448775,0.0027615943234134644
168.0,0.007418988739623842,0.005203814687860721,0.0022908072842672505
168.5,0.007207364471869616,0.004992190420106495,0.0024158939303290704
169.0,0.006754546433418235,0.004539372381655114,0.002157008892312751
169.5,0.006599045326242902,0.004383871274479781,0.0020914807756568943
170.0,0.006246156526369109,0.004030982474605988,0.0017533073185065518
170.5,0.0059736361327553745,0.0037584620809922534,0.0014411214180802957
171.0,0.005892266416283914,0.0036770923645207928,0.0012806822041292088
171.5,0.005712881413334006,0.0034977073615708853,0.000993457385434529
172.0,0.005622600912794316,0.003407426861031195,0.0007740738132419036
172.5,0.005277874758983264,0.0030627007072201434,0.0002842845576989917
173.0,0.005170268232943077,0.0029550941811799557,1.9435827492335443e-05
173.5,0.0056376931842191625,0.0034225191324560415,0.00032018957271979414
174.0,0.00522767519280922,0.003012501141046099,-0.00026386251697084256
174.5,0.0051424114777063965,0.0029272374259432755,-0.0005289011011938936
175.0,0.005356826348163072,0.0031416522963999506,-0.0004986606576381537
175.5,0.0053160437280319085,0.0031008696762687875,-0.0007268480821574263
176.0,0.00556622063337618,0.003351046581613059,-0.000666237866064249
176.5,0.005523500564159639,0.003308326512396518,-0.0008996730018932348
177.0,0.005593733574646486,0.003378559522883365,-0.0010203165804991438
177.5,0.005630649872637077,0.003415475820873956,-0.0011734615842463039
178.0,0.0061300227945579495,0.0039148487427948285,-0.0008623592321983708
178.5,0.0061286005511618415,0.0039134264993987205,-0.0010492839498636337
179.0,0.006372098635395456,0.004156924583632335,-0.0009875413844160656
179.5,0.006685449513287702,0.004470275461524581,-0.000851221711333088
180.0,0.00694002721457933,0.004724853162816209,-0.0007679798408117729
180.5,0.006611303745048505,0.004396129693285384,-0.001261385056419576
181.0,0.006710162086836617,0.004494988035073496,-0.001319614920250057
181.5,0.006903685883591288,0.004688511831828167,-0.0012746730417466491
182.0,0.006952121037168904,0.004736946985405783,-0.0013654352378286551
182.5,0.007172811510800808,0.004957637459037687,-0.001273721583810044
183.0,0.00777284315589976,0.005557669104136639,-0.000791660359970559
183.5,0.007598182700801975,0.005383008649038854,-0.0010725565978328497
184.0,0.007697724030044587,0.005482549978281466,-0.001066852956064718
184.5,0.008047357565431113,0.005832183513667992,-0.000798066987309669
185.0,0.007964407866923694,0.005749233815160573,-0.0009483595636280324
185.5,0.008247809453854643,0.006032635402091522,-0.0007183643588461637
186.0,0.008408133221034973,0.006192959169271852,-0.0005971659254484585
186.5,0.008666094761337336,0.006450920709574215,-0.0003637949806488891
187.0,0.008746843406762267,0.006531669354999146,-0.0002929420304950449
187.5,0.00895325965244333,0.006738085600680209,-8.166162365685469e-05
188.0,0.009287632176282992,0.007072458124519871,0.0002723040059711551
188.5,0.009251896338959648,0.007036722287196527,0.0002707638047847677
189.0,0.009612055295456284,0.007396881243693163,0.0006795004004086355
189.5,0.009747607624836093,0.007532433573072972,0.0008777001251170438
190.0,0.009826745379548175,0.0076115713277850544,0.001033154428009761
190.5,0.009971449638714928,0.0077562755869518074,0.001267359710788979
191.0,0.0101139513366316,0.007898777284868479,0.0015119832951741219
191.5,0.00994992659196702,0.007734752540203899,0.0014620646719101793
192.0,0.009657809170966095,0.007442635119202974,0.0012953345782617965
192.5,0.009519779254675929,0.007304605202912808,0.0012932109783809886
193.0,0.009580598905337497,0.007365424853574376,0.0014996422386291059
193.5,0.009620168252378426,0.0074049942006153046,0.0016936714097075005
194.0,0.009513824052028623,0.007298650000265502,0.0017497431574930687
194.5,0.009502084041358584,0.007286909989595463,0.0019074566497079793
195.0,0.009338360707537822,0.007123186655774701,0.001919287905987447
195.5,0.00890737726425186,0.006692203212488738,0.0016690142924093588
196.0,0.008599556391957872,0.006384382340194751,0.0015461116104737455
196.5,0.008123018491749422,0.005907844439986301,0.0012577604294820377
197.0,0.007423414441917366,0.005208240390154245,0.0007486865579774257
197.5,0.006832784352157042,0.004617610300393921,0.000350027064495639
198.0,0.0067460128402866484,0.004530838788523527,0.0004557922976313293
198.5,0.006303986833803109,0.004088812782039988,0.00020602984361376558
199.0,0.005607432348064469,0.0033922582963013476,-0.0002993331795779785
199.5,0.005088144847224311,0.00287297079546119,-0.0006292549264170595
200.0,0.004381902131759922,0.0021667280799968006,-0.001148661811550313
200.5,0.0036738691373763258,0.0014586950856132048,-0.0016730403134350962
201.0,0.0036464360180736696,0.0014312619663105486,-0.0015205962267100456
201.5,0.003359229046112595,0.001144054994349474,-0.0016322418250972423
202.0,0.003260292645457349,0.0010451185936942282,-0.0015604126023956604
202.5,0.0030296421347793864,0.0008144680830162654,-0.0016255139900711673
203.0,0.0029876120084468822,0.0007724379566837612,-0.0015075731890276164
203.5,0.0027960774903057818,0.0005809034385426608,-0.001545018339263841
204.0,0.002655625197686276,0.0004404511459231552,-0.0015375091421480397
204.5,0.0026865102827233265,0.00047133623096020554,-0.0013649815152430552
205.0,0.0024731541300472113,0.00025798007828409025,-0.0014431521437263597
205.5,0.002565180074505352,0.0003500060227422312,-0.0012224854051343154
206.0,0.0024035708556780144,0.00018839680391489338,-0.0012620388895310684
206.5,0.002744749864324265,0.0005295758125611438,-0.0008053853984271598
207.0,0.0025766252149120915,0.0003614511631489705,-0.0008645723274062391
207.5,0.0025234229109171217,0.00030824885915400066,-0.0008152921065002513
208.0,0.002462028488263988,0.00024685443650086705,-0.0007805442561344487
208.5,0.002688460202912791,0.0004732861511496699,-0.00046416593905042336
209.0,0.002524831044341632,0.00030965699257851087,-0.000543873676706941
209.5,0.002577538420759249,0.0003623643689961279,-0.00041307733891728473
210.0,0.002577008424889329,0.000361834373126208,-0.00034113945719511495
210.5,0.002739042927588005,0.0005238688758248838,-0.00011203157884017952
211.0,0.002610841039819739,0.0003956669880566181,-0.00017831609065411874
211.5,0.002641575776251632,0.00042640172448851115,-9.05726535997644e-05
212.0,0.002519829146246314,0.000304655094483193,-0.00015996600229200826
212.5,0.0024448776318060214,0.00022970358004290037,-0.00018696313437915522
213.0,0.002215174051763121,0.0,-0.0003728538798461937
213.5,0.002327215770851038,0.00011204171908791704,-0.00022088488535512165
214.0,0.0026203504612949953,0.00040517640953187427,0.00010854419619040997
214.5,0.0023799617572868516,0.0001647877055237306,-9.893535029903877e-05
215.0,0.0023129208953099768,9.774684354685575e-05,-0.0001362111362560831
215.5,0.002460965764762916,0.00024579171299979503,3.8688134970835065e-05
216.0,0.0025858810978905728,0.00037070704612745175,0.00018777183007153079
216.5,0.0023785429319228657,0.00016336888015974467,2.1310261038223343e-06
217.0,0.002269472289416639,5.429823765351789e-05,-8.750843842090215e-05
217.5,0.0024218911240687334,0.00020671707230561238,8.226953079206505e-05
218.0,0.002575318620374172,0.0003601445686110508,0.00025116729420075545
218.5,0.002426517122148085,0.00021134307038496404,0.00011611926386508174
219.0,0.002696897454634708,0.0004817234028715871,0.00039869721252713277
219.5,0.0024123191093549045,0.00019714505759178347,0.00012491055949181412
220.0,0.0029200829742199565,0.0007049089224568355,0.000642199300230284
