wavelength,absorbance,absorbance_bk,residual_3gauss
117.0,0.4637165644859167,0.47362917410412914,0.0032328447168510355
117.5,0.4574092941796401,0.46732190379785254,-0.0024372289656178214
118.0,0.4556842410363918,0.46559685065460427,-0.0026074272745413296
118.5,0.453236804438844,0.46314941405705645,-0.0025970300873882635
119.0,0.45130230865492815,0.4612149182731406,-0.0011921321200995538
119.5,0.44772997269024223,0.45764258230845467,-0.000571783077966459
120.0,0.44553833461952547,0.4554509442377379,0.002247341907721967
120.5,0.43831166883844686,0.4482242784566593,0.000807276974957194
121.0,0.43382090356171366,0.4437335131799261,0.0028296106695412937
121.5,0.4255680004742028,0.43548061009241523,0.0017598029530497827
122.0,0.41843964238818365,0.4283522520063961,0.002420821542816587
122.5,0.41096104719521526,0.4208736568134277,0.003266920131273221
123.0,0.40120265078788186,0.4111152604060943,0.00229030859512247
123.5,0.38998676230293006,0.3998993719211425,0.0002278296106423272
124.0,0.3792788003897504,0.38919141000796287,-0.0010477345975398733
124.5,0.3688569592400232,0.37876956885823565,-0.001857857504312499
125.0,0.3589070501519283,0.36881965977014075,-0.0021231965910115114
125.5,0.3485240058261036,0.35843661544431604,-0.0028617406864321904
126.0,0.33901153635765446,0.3489241459758669,-0.0028886575851576057
126.5,0.33002482759425006,0.3399374372124625,-0.002672919582232869
127.0,0.3212374847243481,0.33115009434256054,-0.002669471921218247
127.5,0.3133059957052167,0.32321860532342916,-0.00235363878778444
128.0,0.306743036583754,0.31665564620196646,-0.0013464175912366594
128.5,0.3013711203022994,0.31128372992051184,4.08612586596524e-05
129.0,0.29597496869455614,0.3058875783127686,0.00046090135276510846
129.5,0.29208624437265984,0.3019988539908723,0.0013174720267481455
130.0,0.2895290721382669,0.29944168175647934,0.0023135218910544375
130.5,0.2877684930120228,0.29768110263023523,0.0028024885562875634
131.0,0.28690304187967025,0.2968156514978827,0.002783949046372469
131.5,0.2878153414213514,0.29772795103956384,0.003057438231252929
132.0,0.2894708264576428,0.29938343607585527,0.002524465151586497
132.5,0.29307518075996886,0.3029877903781813,0.0023492070694526856
133.0,0.29780752995412607,0.3077201395723385,0.0016948068646137626
133.5,0.3043210068006756,0.31423361641888803,0.0012267596423714
134.0,0.3113057655062432,0.32121837512445567,-0.00032167303474300857
134.5,0.3203217965087326,0.33023440612694505,-0.0013148102545667006
135.0,0.33093471813195946,0.3408473277501719,-0.002077619857116353
135.5,0.34249480780130287,0.3524074174195153,-0.0031163694577798773
136.0,0.35565375743354216,0.3655663670517546,-0.0036024817148798682
136.5,0.3697498007333872,0.37966241035159964,-0.003989026372688831
137.0,0.3850995607301487,0.39501217034836117,-0.0037215490687415587
137.5,0.4015702077376964,0.41148281735590886,-0.002669658002108055
138.0,0.41867143037663834,0.4285840399948508,-0.0010398365163606926
138.5,0.43571828318584416,0.4456308928040566,0.0007816535255203982
139.0,0.45265172224276606,0.4625643318609785,0.0030427025909344763
139.5,0.4680077465376842,0.4779203561558966,0.0045871896492641895
140.0,0.48078014253025386,0.4906927521484663,0.004709910206122103
140.5,0.4915265861117617,0.5014391957299741,0.004254569937365671
141.0,0.49900605170589346,0.5089186613241059,0.0022430373555882843
141.5,0.5044506104689541,0.5143632200871665,0.00013919884199364851
142.0,0.5082149993454934,0.5181276089637058,-0.0015089294722078206
142.5,0.510338546403835,0.5202511560220474,-0.002513969271522365
143.0,0.5107247441697312,0.5206373537879436,-0.0028752568132422995
143.5,0.5096425577797813,0.5195551673979937,-0.0022818684340920603
144.0,0.505955257206693,0.5158678668249054,-0.0018865427374782362
144.5,0.5002344311621438,0.5101470407803562,-0.001192597619336433
145.0,0.49276189656237607,0.5026745061805885,-5.09136057356141e-05
145.5,0.4828404749458659,0.49275308456407835,0.0006541574936845262
146.0,0.4718714919433237,0.4817841015615361,0.0020879188003235516
146.5,0.457882305080522,0.46779491469873447,0.0020008081534670374
147.0,0.44238201781277114,0.4522946274309836,0.0015942841491635718
147.5,0.42524072778544314,0.4351533374036556,0.00041221514955336325
148.0,0.4070432766181917,0.4169558862364041,-0.0012916806849356255
148.5,0.38961371446654086,0.3995263240847533,-0.0020147287336684805
149.0,0.37428936681390734,0.3842019764321198,-0.0007164060253672666
149.5,0.3588222398787246,0.368734849496937,9.716213472271695e-05
150.0,0.3442759788086629,0.35418858842687534,0.0012825351687897335
150.5,0.32897852121775817,0.3388911308359706,0.001021260414127867
151.0,0.314165847676818,0.32407845729503043,0.0004696391711447312
151.5,0.3000661567680913,0.30997876638630373,-0.00015542442778021526
152.0,0.28648934269163995,0.2964019523098524,-0.00099001649146635
152.5,0.27388420350038567,0.2837968131185981,-0.0014738349625202929
153.0,0.2631611374619294,0.2730737470801418,-0.0005396614241454101
153.5,0.25250556753069425,0.2624181771489067,0.00018441251350814758
154.0,0.241470399576808,0.25138300919502043,0.0004495455604123233
154.5,0.23020167624581164,0.24011428586402409,0.0005931639499865138
155.0,0.21865756819205137,0.2285701778102638,0.0007402081322867571
155.5,0.20570485672137837,0.2156174663395908,-0.0001156582139760498
156.0,0.1928047972083288,0.20271740682654124,-0.00043763740467195333
156.5,0.17955000255696663,0.18946261217517907,-0.0006155784780990936
157.0,0.16667226253402712,0.17658487215223956,4.044220626570061e-05
157.5,0.1529934774575548,0.16290608707576723,0.00025485486991394524
158.0,0.13955748841555063,0.14947009803376307,0.0009268422249970321
158.5,0.1252094500229116,0.13512205964112403,0.000721721718451751
159.0,0.11132474853266584,0.12123735815087829,0.0008141428722492766
159.5,0.09741834099176243,0.10733095060997487,0.0005125143364113904
160.0,0.08383177565570137,0.09374438527391381,-3.950525761742263e-05
160.5,0.07107612184194513,0.08098873146015757,-0.0005074607854489016
161.0,0.05907515953919632,0.06898776915740876,-0.0011130764452123298
161.5,0.04789362581657388,0.05780623543478632,-0.0018995080884426918
162.0,0.0389290959577749,0.04884170557598734,-0.0015364525501347093
162.5,0.03132113886046976,0.041233748478682206,-0.0009112734920077303
163.0,0.023946528408793355,0.0338591380270058,-0.0011368737383171262
163.5,0.01865868814620025,0.02857129776441269,-0.0003174567772317727
164.0,0.014184234826103419,0.02409684444431586,0.00034145653258971925
164.5,0.010672587373470942,0.02058519699168338,0.00107548306159011
165.0,0.007287617746570531,0.017200227364782973,0.0011459552937834253
165.5,0.005040797848421311,0.014953407466633751,0.0016666113920074145
166.0,0.0034464047491227575,0.013359014367335198,0.0022533291821281894
166.5,0.001972350138815927,0.011884959757028368,0.002470671698161467
167.0,0.001025054392983581,0.010937664011196021,0.0028137160929328133
167.5,-0.0004134694748473384,0.009499140143365102,0.002343262592062677
168.0,-0.00183372009937268,0.00807888951883976,0.0016368730415498266
168.5,-0.0027468185289997045,0.007165791089212736,0.00124072111488693
169.0,-0.0027991607810291543,0.007113448837183286,0.0015555037787711341
169.5,-0.0035329450748201336,0.006379664543392307,0.0010768755517559896
170.0,-0.003919779182282982,0.0059928304359294585,0.0008630208863530065
170.5,-0.004371384767715495,0.005541224850496945,0.0005252040129491899
171.0,-0.004681450286825429,0.0052311593313870116,0.00028713892158650865
171.5,-0.005710804181995049,0.0042018054362173915,-0.0006990621750311834
172.0,-0.005693098264783674,0.004219511353428767,-0.0006575910888036553
172.5,-0.005988145116956035,0.003924464501256405,-0.0009414557686403093
173.0,-0.00604294961712983,0.003869660001082611,-0.000992840561776464
173.5,-0.006109254861849763,0.0038033547563626775,-0.001060122102191234
174.0,-0.006795834463467788,0.0031167751547446524,-0.0017497541168563337
174.5,-0.006669462219399392,0.0032431473988130486,-0.001626931345663895
175.0,-0.006879089109703705,0.0030335205085087356,-0.0018395422031287781
175.5,-0.00705577598762749,0.002856833630584951,-0.002017940229425751
176.0,-0.006918700857482779,0.0029939087607296615,-0.0018808376628600366
176.5,-0.007146011490664336,0.0027665981275481043,-0.002106079259501059
177.0,-0.006804956367000123,0.0031076532512123176,-0.0017607194895145123
177.5,-0.006822747098978365,0.0030898625192340755,-0.0017718488195565514
178.0,-0.0069367811106530826,0.002975828507559358,-0.0018767923852774752
178.5,-0.007171089624302864,0.0027415199939095766,-0.0020995421946819444
179.0,-0.006858882198499339,0.003053727419713102,-0.0017732913700894606
179.5,-0.006551391824072774,0.003361217794139667,-0.0014492725607553889
180.0,-0.006514100433335463,0.0033985091848769775,-0.0013929791204271196
180.5,-0.006600846220293891,0.0033117633979185494,-0.0014582696124611667
181.0,-0.006150903946712018,0.0037617056715004227,-0.0009844462717294644
181.5,-0.005698276507044464,0.0042143331111679765,-0.0005055453437030526
182.0,-0.005858177142909245,0.004054432475303195,-0.0006368184653657554
182.5,-0.0056077925059350026,0.004304817112277438,-0.0003554951427363123
183.0,-0.005359262744108272,0.004553346874104169,-7.376240858012872e-05
183.5,-0.006101782999183647,0.0038108266190287933,-0.0007808659897367565
184.0,-0.005822446880408962,0.0040901627378034785,-0.00046395351235279
184.5,-0.00570206255618091,0.00421054706203153,-0.0003038903630882923
185.0,-0.005348415562970106,0.004564194055242335,9.147770938934541e-05
185.5,-0.005019767292413888,0.004892842325798553,0.00046382630130816557
186.0,-0.005691979082927468,0.004220630535284973,-0.00016277155117855584
186.5,-0.005275148876578224,0.004637460741634216,0.0003015181542295317
187.0,-0.00474819652812563,0.005164413090086811,0.0008777052588155275
187.5,-0.0049461969008277205,0.00496641271738472,0.0007306425290389005
188.0,-0.004519777563827519,0.005392832054384921,0.001209628141969496
188.5,-0.004672173889851277,0.005240435728361164,0.0011113507714936256
189.0,-0.004151361098128642,0.005761248520083799,0.0016877577303577342
189.5,-0.004223445488817183,0.0056891641293952576,0.001672663921551537
190.0,-0.004256502937056533,0.005656106681155908,0.0016979135305636274
190.5,-0.004076318148497066,0.005836291469715375,0.0019376409562414185
191.0,-0.004112740437170361,0.00579986918104208,0.0019619152189139857
191.5,-0.003906567834096629,0.0060060417841158115,0.0022298560368787415
192.0,-0.004533237248741641,0.0053793723694708,0.0016659438486207575
192.5,-0.003855050579806903,0.006057559038405538,0.0024077938837582537
193.0,-0.003983371345691412,0.005929238272521029,0.002343959711856955
193.5,-0.004043724871391849,0.005868884746820592,0.0023488332318370984
194.0,-0.004405493723538176,0.005507115894674264,0.00205294940978085
194.5,-0.003897307531025679,0.006015302087186761,0.0026275966272014534
195.0,-0.00410589188204671,0.00580671773616573,0.002485967948513709
195.5,-0.004546222744281873,0.005366386873930568,0.002113006860511713
196.0,-0.005542822989959864,0.004369786628252576,0.0011841109017351036
196.5,-0.005667248367865924,0.0042453612503465165,0.0011276458392607013
197.0,-0.0056507357270688995,0.004261873891143541,0.0012122975877941725
197.5,-0.006076896918812214,0.0038357126994002268,0.0008543784442899263
198.0,-0.006439465157324126,0.0034731444608883145,0.0005600808570471708
198.5,-0.007135666361333559,0.0027769432568788815,-6.78937927703167e-05
199.0,-0.007163303662260658,0.0027493059559517826,-2.7419583394986714e-05
199.5,-0.00787847100175987,0.002034138616452571,-0.000674659541378398
200.0,-0.00801477129223471,0.0018978383259777298,-0.0007432837009675015
200.5,-0.008353166637729106,0.0015594429804833346,-0.0010143192314797486
201.0,-0.008415040732951894,0.0014975688852605466,-0.001009212750542724
201.5,-0.008822058759632562,0.0010905508585798782,-0.0013496901424742986
202.0,-0.009145061045474735,0.0007675485727377061,-0.0016066501471170354
202.5,-0.00843739526038306,0.0014752143578293814,-0.0008334964938195655
203.0,-0.009268656099451648,0.0006439535187607922,-0.0015998775300406906
203.5,-0.009422375439167678,0.0004902341790447625,-0.0016893763309888243
204.0,-0.009827789235493482,8.48203827189583e-05,-0.0020312775588914476
204.5,-0.009600372133948178,0.0003122374842642623,-0.0017411020419202936
205.0,-0.00986816945177833,4.444016643411104e-05,-0.001946938732741015
205.5,-0.009683486247777203,0.00022912337043523752,-0.0017011337621018567
206.0,-0.00957408397034683,0.0003385256478656111,-0.0015314870778876048
206.5,-0.009384926321956671,0.0005276832962557692,-0.0012829983076031207
207.0,-0.009569810759388052,0.0003427988588243884,-0.0014094982634660312
207.5,-0.00979408528162184,0.00011852433659060094,-0.0015763657417378742
208.0,-0.009654493833104237,0.0002581157851082039,-0.0013803729437833056
208.5,-0.009599752324176508,0.0003128572940359325,-0.0012702615203824513
209.0,-0.009408162274343311,0.0005044473438691292,-0.0010243562446964343
209.5,-0.00991260961821244,0.0,-0.001475563853431955
210.0,-0.009030326679041769,0.0008822829391706716,-0.0005411350608431032
210.5,-0.008921298230598838,0.0009913113876136026,-0.0003810706659691794
211.0,-0.008909719564858186,0.0010028900533542544,-0.0003195796703194633
211.5,-0.009047661154984296,0.0008649484632281441,-0.00040874399513278654
212.0,-0.009275737776109764,0.0006368718421026764,-0.000589187660397116
212.5,-0.008686231149370798,0.0012263784688416428,4.680050923594405e-05
213.0,-0.009079757689645097,0.0008328519285673436,-0.00030140092847475114
213.5,-0.008576388319448276,0.0013362212987641647,0.000246134084575138
214.0,-0.008963863631324828,0.0009487459868876124,-9.833612637756778e-05
214.5,-0.009205331491754957,0.0007072781264574838,-0.0002979586460216191
215.0,-0.008877411283816467,0.0010351983343959738,7.064971320662331e-05
215.5,-0.008586760280297801,0.0013258493379146395,0.00040083596115618046
216.0,-0.008568907173596095,0.001343702444616346,0.0004570773218243741
216.5,-0.008465189371622397,0.0014474202465900431,0.0005980438581289492
217.0,-0.008602220574947632,0.0013103890432648087,0.0004971308146489564
217.5,-0.008429895116931586,0.001482714501280855,0.0007044541968760164
218.0,-0.008238494240701567,0.0016741153775108736,0.0009297444133832668
218.5,-0.00811716700021274,0.0017954426179997013,0.0010838652939431678
219.0,-0.00813268881069557,0.0017799208075168702,0.001100055458540573
219.5,-0.007872895074380312,0.0020397145438321284,0.0013904946116310483
220.0,-0.007890491921834894,0.0020221176963775463,0.0014024927215355424
