wavelength,absorbance,absorbance_bk,residual_3gauss
117.0,0.6539860496273482,0.653038408796932,0.0011135245651601178
117.5,0.6440125661860489,0.6430649253556326,-0.005316996783234829
118.0,0.6425077416729945,0.6415601008425783,-0.0023139122119835154
118.5,0.6385053825820639,0.6375577417516477,-0.0008690569923351932
119.0,0.63382182347796,0.6328741826475438,0.0008026982747971756
119.5,0.6272857783458664,0.6263381375154502,0.0014931940604266947
120.0,0.6189807468240995,0.6180331059936833,0.0012432625081000293
120.5,0.6118539300800973,0.610906289249681,0.002951491580910348
121.0,0.6031057600395142,0.602158119209098,0.00376357234878133
121.5,0.5917753279728726,0.5908276871424564,0.0026575132607079555
122.0,0.5812722642622544,0.5803246234318382,0.002975273757006125
122.5,0.5689879163536816,0.5680402755232654,0.0020336682410726503
123.0,0.5565743351112802,0.555626694280864,0.0014030589274136585
123.5,0.544558983973765,0.5436113431433488,0.0015217653271978326
124.0,0.529493130542443,0.5285454897120268,-0.001155830899242427
124.5,0.5162637861394972,0.515316145309081,-0.0018475948319938151
125.0,0.5024239843200927,0.5014763434896765,-0.0031135380722895345
125.5,0.4887567859453325,0.48780914511491635,-0.00429188349820625
126.0,0.476407283942128,0.47545964311171185,-0.004366977615411882
126.5,0.4649253308238764,0.46397768999346023,-0.003926278230230729
127.0,0.45314724539217627,0.4521996045617601,-0.004278108446345685
127.5,0.44321988895932135,0.4422722481289052,-0.0034267328556080723
128.0,0.43490618607755827,0.4339585452471421,-0.0017656287091145084
128.5,0.4263888511500674,0.42544121031965126,-0.001272143363929612
129.0,0.42015313067901033,0.4192054898485942,0.0003773103755367879
129.5,0.4150555527018885,0.41410791187147233,0.0018785383682413115
130.0,0.41143361604641376,0.4104859752159976,0.003412270054359068
130.5,0.40813163593266105,0.4071839951022449,0.0036734882668124635
131.0,0.4065935194714448,0.40564587864102863,0.003968120225297855
131.5,0.4073188301565054,0.40637118932608923,0.004673383856654834
132.0,0.40929000186374376,0.4083423610333276,0.004669555543363735
132.5,0.41197269145882504,0.4110250506284089,0.0033450241980966244
133.0,0.41749074447602136,0.4165431036456052,0.002775953498470929
133.5,0.42486634831758013,0.423918707487164,0.00197094893820432
134.0,0.4332405338864297,0.43229289305601354,9.569289216365684e-05
134.5,0.4439944948087521,0.44304685397833593,-0.0014021936073905783
135.0,0.456731714326475,0.4557840734960589,-0.0028082865869508145
135.5,0.47076806504030977,0.4698204242098936,-0.004649534960083468
136.0,0.487266921412406,0.48631928058198987,-0.005558626686607948
136.5,0.5058110340530101,0.5048633932225939,-0.005702957261756958
137.0,0.5262919034701388,0.5253442626397226,-0.0048975838383469306
137.5,0.5484718985107013,0.5475242576802851,-0.0030469910310439996
138.0,0.5713401185103162,0.5703924776799,-0.0007946833236804896
138.2,0.5789508367335668,0.5780031959031506,-0.0014228796742097316
138.4,0.5881156886326895,0.5871680478022733,-0.00045362137452553686
138.6,0.5972084651068271,0.5962608242764109,0.0005135039216447312
138.8,0.6061080692668509,0.6051604284364347,0.0013843133233882865
139.0,0.6151847771196135,0.6142371362891973,0.00255618494856924
139.2,0.6231425645818622,0.622194923751446,0.0027602765735240675
139.4,0.6311764946080467,0.6302288537776305,0.0032188009321086897
139.6,0.6387337432166085,0.6377861023861923,0.003405936940160448
139.8,0.6461516424055459,0.6452040015751297,0.0036857553552696043
140.0,0.6525303540255529,0.6515827131951367,0.003184773484371184
140.2,0.6586785515376682,0.657730910707252,0.002737516432740672
140.4,0.665040651612903,0.6640930107824868,0.0028136274385471838
140.6,0.6702572099452879,0.6693095691148717,0.002078142268633343
140.8,0.675312511102663,0.6743648702722468,0.0015389581193931967
141.0,0.6793301218013861,0.6783824809709699,0.0003422670417776441
141.2,0.6834993064407796,0.6825516656103634,-0.0003011466294932097
141.4,0.6873493338596837,0.6864016930292675,-0.000841715225927242
141.6,0.6907100767340763,0.68976243590366,-0.001430600992695874
141.8,0.6933586202450801,0.6924109794146639,-0.0022731963337633276
142.0,0.6961982132596563,0.69525057242924,-0.0024502771351069264
142.2,0.6981776908875719,0.6972300500571557,-0.0029986796188919973
142.4,0.7001580831169615,0.6992104422865453,-0.0030447853368318345
142.6,0.7019390508499738,0.7009914100195576,-0.0027781722863264857
142.8,0.7028970014810875,0.7019493606506713,-0.00281357930679349
143.0,0.7040692763587796,0.7031216355283634,-0.002106790711052464
143.2,0.7046276881542436,0.7036800473238274,-0.0014811624200855578
143.4,0.7039290349931281,0.7029813941627119,-0.0015771620351292537
143.6,0.7034749198589894,0.7025272790285731,-0.0008925936283636915
143.8,0.7025942519536269,0.7016466111232107,-0.00010012985996454837
144.0,0.7005075057638159,0.6995598649333997,1.6925028043512924e-05
144.2,0.6983717461420431,0.6974241053116269,0.0006096503365620176
144.4,0.6955532397523053,0.6946055989218891,0.0010361231728210907
144.6,0.6917340716117952,0.690786430781379,0.0009680512251513118
144.8,0.6876591752667179,0.6867115344363017,0.0011378331924715157
145.0,0.6832089497505095,0.6822613089200933,0.0014112205735115069
145.2,0.6782120844397466,0.6772644436093304,0.0016002024262995462
145.4,0.6726947631142587,0.6717471222838425,0.0017122848232118404
145.6,0.6670672934149471,0.6661196525845309,0.002137211521049398
145.8,0.6607957712388033,0.6598481304083871,0.0023187356010143656
146.0,0.6542289633775809,0.6532813225471646,0.0025816254709752906
146.2,0.6469419595741666,0.6459943187437504,0.0024754563411563124
146.4,0.639019584472047,0.6380719436416308,0.002058177417071816
146.6,0.6309274191654326,0.6299797783350164,0.0017673040976992072
146.8,0.6223997278906515,0.6214520870602352,0.0013080300934272815
147.0,0.6134367050560288,0.6124890642256126,0.0006506738114924193
147.2,0.604367768684999,0.6034201278545828,9.418399626881513e-05
147.4,0.5954396566011718,0.5944920157707556,-0.0001455403837190561
147.6,0.5857450250191475,0.5847973841887313,-0.0010068179320920079
147.8,0.5757575049208997,0.5748098640904835,-0.0020468867782488243
148.0,0.5660573881053077,0.5651097472748915,-0.002715970912352428
148.2,0.5565217467134684,0.5555741058830522,-0.0031669094600209613
148.4,0.5470502576901134,0.5461026168596972,-0.003529080032172338
148.6,0.5386259203118243,0.5376782794814081,-0.002847430828153419
148.8,0.529680892004118,0.5287332511737018,-0.0027163992632968093
149.0,0.5217363735647979,0.5207887327343816,-0.0016397891452556435
149.2,0.5134302570026119,0.5124826161721957,-0.0010028964373668403
149.4,0.5058446495233793,0.5048970086929631,0.0002552266196416131
149.6,0.4976692931224845,0.4967216522920683,0.0008053851824401104
149.8,0.4893467753720241,0.48839913454160794,0.001073625620591101
150.0,0.4810494986085482,0.480101857778132,0.0012183535591933636
150.5,0.4610602423292609,0.46011260149884475,0.0016157596081329273
151.0,0.4414233392677413,0.44047569843732515,0.0012719048492673135
151.5,0.42261131268355034,0.4216636718531342,0.0006685377925793601
152.0,0.4045742961097719,0.40362665527935576,-0.00013057380993858336
152.5,0.38805868022599,0.38711103939557384,-0.00017521074034515527
153.0,0.3727430528432447,0.37179541201282856,0.0004850367800960931
153.5,0.3573519697606401,0.35640432893022395,0.0008860694391717439
154.0,0.34158985408138404,0.3406422132509679,0.001050961023768282
154.5,0.32487475877256017,0.323927117942144,0.0006908353400158496
155.0,0.30715268200036305,0.3062050411699469,-1.1091603324075994e-05
155.5,0.2889088500122931,0.28796120918187695,-0.0004128105001680038
156.0,0.2698012162531703,0.2688535754227541,-0.0007964299227239957
156.5,0.25010195659332973,0.24915431576291355,-0.0009333633186666968
157.0,0.22984269697491616,0.22889505614449998,-0.0009356219922989073
157.5,0.2098594990138045,0.2089118581833883,-0.00019791905563526502
158.0,0.18982425797476796,0.18887661714435178,0.0006542990038411189
158.5,0.16903373067430305,0.16808608984388687,0.0005795649512662648
159.0,0.14891920689069427,0.1479715660602781,0.0006579030943696385
159.5,0.1291913095872115,0.12824366875679533,0.00026265436846431567
160.0,0.110659140204671,0.10971149937425483,-9.678465063663044e-05
160.5,0.09306168888776303,0.09211404805734685,-0.0009253574027735662
161.0,0.07755541108550587,0.07660777025508969,-0.0012431261297917856
161.5,0.06397551821705198,0.0630278773866358,-0.0013191765202786448
162.0,0.0520717404785958,0.05112409964817963,-0.0014374014624783174
162.5,0.04247526063835254,0.041527619807936365,-0.0009363708266905205
163.0,0.03479951250910652,0.033851871678690346,-0.00011912122877338199
163.5,0.028705596462252396,0.02775795563183622,0.0007994976231560577
164.0,0.023702973989737405,0.02275533315932123,0.0014801170510837305
164.5,0.019917246014912147,0.01896960518449597,0.0022138841703417435
165.0,0.01687160165384027,0.015923960823424094,0.002692780606136992
165.5,0.01474552343582387,0.013797882605407694,0.0032593944514291723
166.0,0.01284332876350613,0.011895687933089953,0.003368955927883187
166.5,0.01148840452670868,0.010540763696292504,0.0034794318223950304
167.0,0.010414293754004784,0.009466652923588607,0.003440564617384981
167.5,0.009754976481732909,0.008807335651316733,0.003483800453369719
168.0,0.00869966487342061,0.007752024043004434,0.002877980582292305
168.5,0.008188303568158686,0.0072406627377425105,0.0026265558715817356
169.0,0.00792573748640465,0.006978096655988474,0.002483910578086686
169.5,0.007757110411937688,0.006809469581521513,0.002333060250835589
170.0,0.007581700631344375,0.006634059800928199,0.002101715118848979
170.5,0.007580481217412746,0.00663284038699657,0.0019918594561588255
171.0,0.0072602569956995554,0.00631261616528338,0.0015256269610498035
171.5,0.007103749553304817,0.006156108722888642,0.0011968208828751544
172.0,0.00690522333655222,0.005957582506136045,0.0008076830508094573
172.5,0.006417651685032041,0.005470010854615866,0.00011694185785936489
173.0,0.006410765111284952,0.005463124280868777,-0.00010147787363415112
173.5,0.006211289494576993,0.005263648664160818,-0.0005177330084865789
174.0,0.005839198146379708,0.004891557315963533,-0.0011094646671317137
174.5,0.005738162832608097,0.004790522002191921,-0.001431105983037139
175.0,0.005380290777252443,0.004432649946836268,-0.002008980123758543
175.5,0.005644292446693492,0.004696651616277316,-0.001963021999506354
176.0,0.005843129594808127,0.004895488764391952,-0.0019790578027517455
176.5,0.005837940966286473,0.004890300135870298,-0.002194833048132073
177.0,0.005941005484108877,0.004993364653692702,-0.0022970208207394247
177.5,0.006083435764390984,0.005135794933974809,-0.0023535115167576297
178.0,0.0063188535377643774,0.005371212707348202,-0.002309728496209496
178.5,0.0064289021363948705,0.005481261305978695,-0.0023831117987976047
179.0,0.0067277186050628615,0.005780077774646686,-0.0022586455700681534
179.5,0.006631896375055667,0.0056842555446394915,-0.0025188970639629877
180.0,0.00668267959825354,0.0057350387678373645,-0.002621825323682119
180.5,0.007035353346662233,0.0060877125162460575,-0.002411394791866215
181.0,0.007276960547373222,0.006329319716957047,-0.0022998626029964225
181.5,0.007356395610632636,0.006408754780216461,-0.0023376893315616544
182.0,0.007621096465911861,0.006673455635495686,-0.002176851283637928
182.5,0.007934460045945392,0.006986819215529217,-0.0019534291424404783
183.0,0.008148685296565478,0.0072010444661493025,-0.0018147687739504753
183.5,0.008334873084981076,0.0073872322545649,-0.0016893847282121255
184.0,0.008540898015522078,0.007593257185105903,-0.0015290913541668007
184.5,0.009005793243617633,0.008058152413201456,-0.001094620379247676
185.0,0.00929284052886121,0.008345199698445034,-0.000822532667756332
185.5,0.009984548828252126,0.00903690799783595,-0.0001302408232740082
186.0,0.010466381463816033,0.009518740633399856,0.0003677174222092468
186.5,0.010496237641185336,0.00954859681076916,0.00042916082224047497
187.0,0.010928045787444563,0.009980404957028387,0.0009078587050301203
187.5,0.011219137947516987,0.010271497117100811,0.0012609067718506468
188.0,0.011564911837655584,0.010617271007239408,0.0016833911895220172
188.5,0.01208205298624914,0.011134412155832964,0.002291613385333069
189.0,0.012444163582636203,0.011496522752220026,0.0027587221356199162
189.5,0.012466753621554824,0.011519112791138647,0.0028997084991162873
190.0,0.01232608967292831,0.011378448842512134,0.0028902588818589224
190.5,0.012181101868231396,0.01123346103781522,0.002888666776276515
191.0,0.01194525704385486,0.010997616213438683,0.002807711061332943
191.5,0.011768083697972368,0.010820442867556191,0.0027961864625707378
192.0,0.011609658962548591,0.010662018132132415,0.002813396312788539
192.5,0.011700079045601762,0.010752438215185586,0.0030886290052052207
193.0,0.011670288734836172,0.010722647904419996,0.003251993665518334
193.5,0.011362136225197828,0.010414495394781651,0.0031444812401638864
194.0,0.010917717766023538,0.009970076935607362,0.002907315431558549
194.5,0.010353487118369267,0.009405846287953091,0.002556068407246043
195.0,0.009158766023390942,0.008211125192974766,0.0015791774222089832
195.5,0.008239415897024746,0.0072917750666085706,0.0008816225108067965
196.0,0.007750088379610044,0.006802447549193869,0.0006171828217309532
196.5,0.0071944787839972,0.006246837953581025,0.0002886955884364396
197.0,0.0066347669511399605,0.005687126120723785,-4.249780231411777e-05
197.5,0.006381806189229685,0.00543416535881351,-6.6358008917221e-05
198.0,0.005612270902308248,0.0046646300718920725,-0.0006069956300994604
198.5,0.004989087732832396,0.0040414469024162205,-0.0010022360021272577
199.0,0.004402237895812714,0.0034545970653965382,-0.0013628132442428291
199.5,0.0038394332291574944,0.002891792398741319,-0.0017016910454318965
200.0,0.0035166018290428034,0.002568960998626628,-0.0018035743353795475
200.5,0.003007429652531706,0.0020597888221155305,-0.002095365463116817
201.0,0.0025183823867012435,0.001570741556285068,-0.0023711405840631935
201.5,0.002443098062961979,0.0014954572325458033,-0.0022377557712497786
202.0,0.0022206989443310167,0.0012730581139148412,-0.002256534312274231
202.5,0.0021828394175480805,0.001235198587131905,-0.0020962184446494322
203.0,0.0017724809307218844,0.0008248401003057088,-0.0023141944690973503
203.5,0.0018817818343634745,0.0009341410039472989,-0.002018603359345832
204.0,0.0020983716144661294,0.0011507307840499538,-0.0016220673528777895
204.5,0.00163986507636646,0.0006922242459502843,-0.001907176934241158
205.0,0.0019477372859864432,0.0010000964555702675,-0.0014326173724464463
205.5,0.0016755232667822043,0.0007278824363660287,-0.0015449707805864216
206.0,0.0018535821010929729,0.0009059412706767972,-0.0012139540143204994
206.5,0.0018317681126156457,0.00088412728219947,-0.0010897496972350905
207.0,0.0021011897333335318,0.0011535489029173562,-0.0006812497343893467
207.5,0.00183654095007449,0.0008889001196583144,-0.0008137263838801993
208.0,0.0018876789484197451,0.0009400381180035695,-0.000637257234518551
208.5,0.0013517614776064235,0.0004041206471902479,-0.0010545905329825663
209.0,0.001618967556061949,0.0006713267256457733,-0.0006754272093616437
209.5,0.0017198760385576774,0.0007722352081415018,-0.00046904505049773476
210.0,0.0013184145415808207,0.0003707737111646451,-0.0007713524970120426
210.5,0.0013775950328978471,0.0004299542024816715,-0.0006191557328254854
211.0,0.0012885553538513619,0.00034091452343518625,-0.0006211197758594582
211.5,0.0014190154941921204,0.0004713746637759448,-0.0004093147298956561
212.0,0.0011853105669442183,0.0002376697365280427,-0.0005671852324884504
212.5,0.0011741264675229563,0.00022648563710678065,-0.000507817099729296
213.0,0.001096501900015646,0.0001488610695994703,-0.0005199374725759525
213.5,0.0009858442478241469,3.820341740797125e-05,-0.0005699009777153878
214.0,0.0009631504563061766,1.550962589000099e-05,-0.0005364707279441614
214.5,0.0009476408304161756,0.0,-0.0005001862540202158
215.0,0.0011811974652522507,0.0002335566348360751,-0.0002189266472254678
215.5,0.0010546043438482142,0.0001069635134320386,-0.0003016718774755352
216.0,0.001158171316413975,0.0002105304859977994,-0.0001578800738016802
216.5,0.0010706917604569692,0.0001230509300407936,-0.00020853097046665838
217.0,0.0013035073572565529,0.00035586652684037724,5.793791259049762e-05
217.5,0.0010733827142712451,0.0001257418838550695,-0.0001414949208826396
218.0,0.0011733777825276952,0.00022573695211151954,-1.3563201756544162e-05
218.5,0.0013544044467396726,0.000406763616323497,0.00019284314884337528
219.0,0.0013295558101500485,0.0003819149797338728,0.00019100688044405964
219.5,0.00132291353581131,0.0003752727053951344,0.00020519044374830384
220.0,0.0010671927118199994,0.00011955188140382381,-3.1719350714637005e-05
