wavelength,absorbance,absorbance_bk,residual_3gauss
117.0,0.4780778694816422,0.48280794169294083,-0.0026368465618991643
117.5,0.47844812928544145,0.48317820149674007,-0.0003336756292575127
118.0,0.47691475927692806,0.4816448314882267,0.0008648214246059771
118.5,0.46976469370032536,0.474494765911624,-0.0027723441463682885
119.0,0.4674830699719997,0.4722131421832983,-0.0007829557717626279
119.5,0.4627451929503869,0.4674752651616855,-0.000519707484213594
120.0,0.45910712535806536,0.463837197569364,0.0015402999414176333
120.5,0.45450770028864745,0.4592377724999461,0.0032974746942173727
121.0,0.4476712745076636,0.4524013467189622,0.0034323773075073394
121.5,0.4402611496094001,0.4449912218206987,0.0035590173849816
122.0,0.43162097670371735,0.43635104891501597,0.0029661199991475873
122.5,0.42247500658636095,0.42720507879765957,0.0023172269919037314
123.0,0.41208759501637887,0.4168176672276775,0.000810049281627867
123.5,0.4017718037608732,0.4065018759721718,-0.00031507893624865835
124.0,0.39128846515431925,0.3960185373656179,-0.0013762619196300285
124.5,0.3810134867403361,0.3857435589516347,-0.002082824528130911
125.0,0.37068148598613504,0.37541155819743366,-0.002791701222243703
125.5,0.3602832469618986,0.36501331917319724,-0.0036099119590403683
126.0,0.3512322673738066,0.3559623395851052,-0.0032278245169172215
126.5,0.3418815085142383,0.34661158072553694,-0.003402055431899198
127.0,0.33304918953722934,0.33777926174852796,-0.0034291309612487497
127.5,0.3254948836751148,0.33022495588641343,-0.0026686130419992238
128.0,0.3186724350350531,0.3234025072463517,-0.0017891360506975262
128.5,0.3129311633938921,0.3176612356051907,-0.0005658557316858825
129.0,0.30813289652233466,0.3128629687336333,0.0007382533324613028
129.5,0.30358081161703726,0.3083108838283359,0.0013032473056547866
130.0,0.3007974143528267,0.3055274865641253,0.0025325392115813083
130.5,0.2987476497583121,0.3034777219696107,0.0032786808712712556
131.0,0.29772305257165027,0.3024531247829489,0.0037304751221179933
131.5,0.2974302404019677,0.3021603126132663,0.0035046683510993604
132.0,0.29864295020292103,0.30337302241421965,0.0033013495170828855
132.5,0.3013565622099937,0.3060866344212923,0.003061904567718432
133.0,0.30499709530296204,0.30972716751426066,0.002181395421517407
133.5,0.3105854081113,0.3153154803225986,0.0016759662277676668
134.0,0.3170055177165151,0.3217355899278137,0.00045404446590641134
134.5,0.32500978559740196,0.3297398578087006,-0.0006760649854852252
135.0,0.3339833377653003,0.33871340997659893,-0.002239977968009621
135.5,0.34490785487929027,0.3496379270905889,-0.00313243072707875
136.0,0.3571111585003786,0.36184123071167723,-0.003867585186222655
136.5,0.370239794364156,0.3749698665754546,-0.0046073460530602905
137.0,0.38532494977442433,0.39005502198572295,-0.004097429114219953
137.5,0.40153551324377945,0.40626558545507807,-0.0029174118412788608
138.0,0.4181612006774333,0.4228912728887319,-0.0015018390728547826
138.2,0.4244474117963584,0.42917748400765704,-0.0012844507616709966
138.4,0.43140804320452586,0.4361381154158245,-0.0003548592090276692
138.6,0.4378126837662236,0.44254275597752224,7.629371287948272e-05
138.8,0.4442650765333038,0.44899514874460245,0.0006327013515802782
139.0,0.45052328927263896,0.4552533614839376,0.0010924858153666395
139.2,0.456818542088706,0.4615486143000046,0.0017069460226334932
139.4,0.4628102854891398,0.46754035770043845,0.0021555539514575006
139.6,0.46861170344600334,0.47334177565730196,0.002571374005690019
139.8,0.4743168223525392,0.4790468945638378,0.0030680867783017263
140.0,0.4787700933692147,0.48350016558051334,0.002509485102158593
140.2,0.48380444947939455,0.48853452169069317,0.0027474441182024356
140.4,0.4879769543526528,0.49270702656395143,0.0023574828800205228
140.6,0.4915120322703236,0.4962421044816222,0.0015819071797196216
140.8,0.49550653018755514,0.5002366023988537,0.0015347851072708973
141.0,0.4983747560297572,0.5031048282410558,0.0006468998850920338
141.2,0.5012480396587943,0.5059781118700929,6.522686160526092e-05
141.4,0.5035680654503386,0.5082981376616372,-0.0007538159430536817
141.6,0.5060813037124796,0.5108113759237782,-0.0010500160549398174
141.8,0.5080246063708758,0.5127546785821744,-0.0015738476466948814
142.0,0.5096363360941379,0.5143664083054366,-0.002075415889667531
142.2,0.5116518598848984,0.516381932096197,-0.0018090330742531746
142.4,0.5127576056469055,0.5174876778582042,-0.00207922752911871
142.6,0.5137553034165293,0.5184853756278279,-0.0020765631909577253
142.8,0.5145261070094793,0.5192561792207779,-0.0019135736128771397
143.0,0.515237255792206,0.5199673280035046,-0.0014181502396471979
143.2,0.5151441565346199,0.5198742287459185,-0.0013315045297096484
143.4,0.5154030034686208,0.5201330756799194,-0.000495585335103077
143.6,0.5144112286779343,0.5191413008892329,-0.000512658949239353
143.8,0.5133875144773571,0.5181175866886557,-0.00016531970083510927
144.0,0.5121331280300183,0.5168632002413169,0.0003448296154027197
144.2,0.5097482793033448,0.5144783515146434,0.00011352902736649906
144.4,0.5076134437038036,0.5123435159151022,0.0005151861797969559
144.6,0.5051236566853152,0.5098537288966138,0.0009371823617333463
144.8,0.5017157027519332,0.5064457749632318,0.0008070826009396459
145.0,0.49829951989337246,0.503029592104671,0.001024071250532499
145.2,0.4945012312374541,0.4992313034487527,0.0012020252036949453
145.4,0.49001970819685214,0.49474978040815076,0.0010261293211665246
145.6,0.4857210640837311,0.49045113629502973,0.001347433297086753
145.8,0.48101099469361136,0.48574106690491,0.001555266649156839
146.0,0.4758929711795464,0.480623043390845,0.0016355172584788802
146.2,0.47016362819086766,0.4748937004021663,0.0013661164435515016
146.4,0.4645271608292134,0.46925723304051203,0.0014315440230296406
146.6,0.4584469424032239,0.46317701461452254,0.0012745651279158499
146.8,0.45229788112601765,0.4570279533373163,0.0012487165499212582
147.0,0.4454090648898202,0.4501391371011188,0.0006610912530172763
147.2,0.4387785820777159,0.44350865428901454,0.0004873083389016486
147.4,0.4315190699694687,0.4362491421807673,-0.00018278081810679803
147.6,0.42423273540655215,0.42896280761785077,-0.0007699066229333584
147.8,0.4167760062410944,0.421506078452393,-0.0014405581797821698
148.0,0.40947227840366607,0.4142023506149647,-0.0018940596376935681
148.2,0.4022064801306738,0.4069365523419724,-0.00226782599655323
148.4,0.39491471061968736,0.399644782830986,-0.0026475428573040083
148.6,0.3885489607229135,0.3932790329342121,-0.0021022644225492937
148.8,0.3821285874638343,0.38685865967513294,-0.0016327600262227016
149.0,0.37549262630770847,0.3802226985190071,-0.0014190274503192435
149.2,0.3693573018079763,0.37408737401927494,-0.0007626146927108279
149.4,0.3631783609719468,0.3679084331832454,-0.0002241281935820849
149.6,0.3568839245597871,0.36161399677108574,0.00010976531522305377
149.8,0.35106362551825376,0.3557936977295524,0.0008156101752225253
150.0,0.34418244635551865,0.34891251856681726,0.0003471158821253817
150.5,0.3295239250738661,0.3342539972851647,0.0011674197572448808
151.0,0.3149196186779128,0.3196496908892114,0.0011889640837620674
151.5,0.30073761700277746,0.3054676892140761,0.0007696202758372128
152.0,0.28738031951609466,0.2921103917273933,0.00037954708890675093
152.5,0.2746654608271743,0.2793955330384729,-2.6781351785465368e-05
153.0,0.2635270558387242,0.26825712805002283,0.0006753916810933736
153.5,0.251966337696473,0.2566964099077716,0.0007121785879816156
154.0,0.2401208116065351,0.2448508838178337,0.0004570601884954506
154.5,0.22826341097603964,0.23299348318733826,0.00040599074651243017
155.0,0.2157040788366506,0.22043415104794922,5.629727924225114e-05
155.5,0.20243590375322223,0.20716597596452085,-0.00046619664407443473
156.0,0.18914922215355476,0.19387929436485338,-0.0004064836377985215
156.5,0.17470080080732753,0.17943087301862615,-0.0009177086946415003
157.0,0.16046324000257012,0.16519331221386874,-0.0007108862281396677
157.5,0.14586975520805487,0.1505998274193535,-0.000502192403289331
158.0,0.13169287594441506,0.13642294815571368,0.0002795642299956991
158.5,0.11710978279060948,0.1218398550019081,0.0005762581636357955
159.0,0.10228798347068944,0.10701805568198806,0.00030613201543955304
159.5,0.08839668984765722,0.09312676205895584,0.0003950253660212344
160.0,0.0746838750972839,0.07941394730858252,-0.0001288517053609911
160.5,0.061990304043879216,0.06672037625517784,-0.0006068492291639166
161.0,0.05089883446452845,0.05562890667582707,-0.0005911750620768361
161.5,0.04110741709303176,0.04583748930433038,-0.0004674629725930496
162.0,0.032423292071737164,0.037153364283035784,-0.0004608576783639781
162.5,0.025159044292439744,0.029889116503738364,-0.00024422847830918304
163.0,0.019457242235163444,0.024187314446462063,0.00037924749538546104
163.5,0.013982530243109956,0.018712602454408575,0.0001591690031734483
164.0,0.0103797262267241,0.015109798438022718,0.0008463500473825034
164.5,0.007313591212352396,0.012043663423651013,0.0012232604550256113
165.0,0.004817964641316608,0.009548036852615226,0.001444902219077589
165.5,0.0029933249182852047,0.007723397129583823,0.0017296502355332944
166.0,0.0009954757363774594,0.0057255479476760775,0.0013429648995352218
166.5,7.216629807112414e-05,0.004802238509369742,0.0016307697040768435
167.0,-0.0008711880392157615,0.003858884172082856,0.0015834815478390938
167.5,-0.0018402701882918896,0.002889802023006728,0.0012668288216044253
168.0,-0.002340950059921676,0.0023891221513769414,0.0012332963377922877
168.5,-0.0029537490462065025,0.0017763231650921151,0.0009488285746808568
169.0,-0.003064546740400487,0.0016655254708981306,0.0010636447775106807
169.5,-0.0033747688956852866,0.001355303315613331,0.0009037021095662743
170.0,-0.003973969507027745,0.0007561027042708723,0.0003997301381298546
170.5,-0.003893441170014912,0.0008366310412837056,0.0005350963904855249
171.0,-0.004323089269458377,0.0004069829418402405,0.00013021018331633218
171.5,-0.004360864059536037,0.000369208151762581,9.415090705606935e-05
172.0,-0.004394808760959092,0.0003352634503395258,4.3468812522678e-05
172.5,-0.0046243392621608094,0.00010573294913780815,-0.00021843539647964187
173.0,-0.004197124692326195,0.000532947518972423,0.00016230808097273715
173.5,-0.004730072211298618,0.0,-0.0004305761640952485
174.0,-0.0044572034369845855,0.00027286877431403206,-0.00023111395164193108
174.5,-0.0047109867578653646,1.9085453433253033e-05,-0.0005722162402473092
175.0,-0.004678230134598739,5.184207669987895e-05,-0.0006414270003801051
175.5,-0.004134265714117798,0.0005958064971808199,-0.00021499917226922298
176.0,-0.004184050105788844,0.0005460221055097738,-0.0003989102983736484
176.5,-0.00428032670240332,0.00044974550889529796,-0.0006469554117936589
177.0,-0.0040027505148401525,0.0007273216964584651,-0.0005398116127775566
177.5,-0.003941736118116878,0.0007883360931817398,-0.0006688310306291786
178.0,-0.003690636858380364,0.0010394353529182537,-0.0006281680321250983
178.5,-0.0030793615936227136,0.001650710617675904,-0.0002483458586022558
179.0,-0.002466234829575815,0.0022638373817228026,0.0001119316559584525
179.5,-0.0023566446659341726,0.002373427545364445,-5.282156319616092e-05
180.0,-0.0015196109859978142,0.0032104612253008036,0.0004886012618606204
180.5,-0.0016340540684762826,0.003096018142822335,5.78702046502462e-05
181.0,-0.001368176694680907,0.0033618955166177106,-1.2230058689290634e-05
181.5,-0.0011933998867143165,0.003536672324584301,-0.0001917097192882973
182.0,-0.0002577715782941449,0.004472300633004473,0.0003732351151098682
182.5,-5.4035792173659725e-05,0.0046760364191249576,0.00019216081391777457
183.0,0.000296586619193114,0.005026658830491732,0.000146591786494084
183.5,7.795312978770371e-05,0.004808025341086321,-0.00047644027466953176
184.0,0.0008000925364930328,0.00553016474779165,-0.00016333213239535724
184.5,0.001527793824767652,0.00625786603606627,0.0001546381041812022
185.0,0.0016241851561762091,0.006354257367474827,-0.00015516455782334931
185.5,0.0017200737223703622,0.00645014593366898,-0.00045745869846574357
186.0,0.0023019440004290108,0.007032016211727629,-0.0002611255931879355
186.5,0.002642788884615612,0.007372861095914229,-0.00028846454882392684
187.0,0.0031161311132205825,0.0078462033245192,-0.00016126490954005736
187.5,0.003640464031085679,0.008370536242384296,4.353682291168351e-05
188.0,0.003579059652589774,0.008309131863888392,-0.000306434472375567
188.5,0.003949533395392587,0.008679605606691204,-0.0001895259673550219
189.0,0.004200966890113102,0.00893103910141172,-0.00015302780337714782
189.5,0.004693388602218585,0.009423460813517203,0.00016622127395946214
190.0,0.0052721908979737496,0.010002263109272366,0.0006161750584651772
190.5,0.00554822069414984,0.010278292905448457,0.0008096075161320802
191.0,0.005215442281263045,0.009945514492561662,0.00044172766383583466
191.5,0.005264038336518293,0.00999411054781691,0.0005032493777370889
192.0,0.0052096732371009905,0.009939745448399609,0.0005096413357599233
192.5,0.005187859432136444,0.009917931643435062,0.0005954983231633761
193.0,0.005206096497559235,0.009936168708857853,0.0007667033518584665
193.5,0.00499796624520079,0.009728038456499407,0.0007545631547587542
194.0,0.00455640232644041,0.009286474537739026,0.0005491340855861924
194.5,0.0040231935647698815,0.008753265776068499,0.0002887957118450305
195.0,0.00342776407839753,0.008157836289696147,-8.872348648356759e-07
195.5,0.0030785061232251666,0.007808578334523784,-1.5741363206235592e-05
196.0,0.002440355513232577,0.007170427724531195,-0.0002953126939804684
196.5,0.002048310475767699,0.0067783826870663165,-0.0003092485148285945
197.0,0.0012761900749814997,0.006006262286280118,-0.0006884399352512106
197.5,0.000554945087283923,0.00528501729858254,-0.0010066151675076612
198.0,8.546073670123125e-05,0.004815532947999849,-0.0010674467858391044
198.5,-0.00011596267702606704,0.004614109534272551,-0.000858989250737025
199.0,-0.000473021225677437,0.00425705098562118,-0.0008090185733071629
199.5,-0.0011335970071877823,0.003596475204110835,-0.001069161696611671
200.0,-0.0016561566299890212,0.0030739155813095964,-0.0012012471726825509
200.5,-0.0017947034506599444,0.0029353687606386734,-0.0009622225235929914
201.0,-0.0019500750123504476,0.0027799971989481698,-0.0007554297256914056
201.5,-0.002210204032270925,0.0025198681790276926,-0.0006708567213819651
202.0,-0.0023949220767274706,0.002335150134571147,-0.0005299432709038789
202.5,-0.0022607396597587406,0.002469332551539877,-9.037373737817321e-05
203.0,-0.0023053826549100645,0.002424689556388553,0.00014936469177003224
203.5,-0.0024348157870279982,0.0022952564242706194,0.0002829291335381804
204.0,-0.002554211339992154,0.0021758608713064636,0.00040511699649010426
204.5,-0.0027338586886356663,0.0019962135226629513,0.00044591688086185175
205.0,-0.0027643313397458886,0.001965740871552729,0.000615299323011422
205.5,-0.002694684774249907,0.0020353874370487106,0.0008649756060623186
206.0,-0.0026787437702516246,0.002051328441046993,0.0010420673238106149
206.5,-0.0023491864825709455,0.002380885728727672,0.0015149806085734264
207.0,-0.002584045041076074,0.0021460271702225435,0.0014068662452349015
207.5,-0.0028591073491461374,0.0018709648621524802,0.001243181762846198
208.0,-0.00264215666356562,0.0020879155477329975,0.0015574194835174565
208.5,-0.0027523514480684618,0.001977720763230156,0.0015316983948218987
209.0,-0.002465359162651264,0.0022647130486473537,0.0018916063556612742
209.5,-0.00271325416489191,0.0020168180464067076,0.0017062824666672684
210.0,-0.002506786193691412,0.0022232860176072057,0.001966133002457077
210.5,-0.0023095585192476928,0.002420513692050925,0.0022086415771352475
211.0,-0.002525817845348404,0.0022042543659502134,0.0020305711269765214
211.5,-0.0024923770228927077,0.00223769518840591,0.00209603626258641
212.0,-0.002380618721993024,0.0023494534893055935,0.0022344974199084507
212.5,-0.002561588617845975,0.0021684835934526426,0.002075667818651086
213.0,-0.002552991567399694,0.0021770806438989234,0.002102519320149557
213.5,-0.0024787059218086102,0.0022513662894900074,0.002191771628702875
214.0,-0.002458337469604445,0.0022717347416941727,0.0022243429616357175
214.5,-0.0022892125378817367,0.002440859673416881,0.002403362319883523
215.0,-0.002277456447426896,0.0024526157638717215,0.0024230968658675543
215.5,-0.0022194692345588116,0.002510602976739806,0.0024874822441732333
216.0,-0.001979458212425412,0.0027506139988732058,0.0027325960658950744
216.5,-0.0018809557382588132,0.0028491164730398044,0.002835146027044957
217.0,-0.0020220998387409195,0.002707972372557698,0.0026971948857128225
217.5,-0.00152500238173199,0.0032050698295666277,0.00319679752227276
218.0,-0.0016483342528458608,0.0030817379584527566,0.0030754205676571085
218.5,-0.0015973270158869987,0.003132745195411619,0.0031279450902222047
219.0,-0.001578737532594818,0.0031513346787037993,0.0031477058564784994
219.5,-0.0014818932617207136,0.003248178949577904,0.003245449452976548
220.0,-0.0011412367468812286,0.003588835464417389,0.0035867927796520926
