wavelength,absorbance,absorbance_bk,residual_3gauss
117.0,0.40022266338647977,0.40152024659237295,-0.00046776571687634494
117.5,0.39707259758148944,0.3983701807873826,-0.0015075525516565769
118.0,0.3937370564276688,0.395034639633562,-0.0021290360335791125
118.5,0.3931241371149429,0.39442172032083606,0.0005607504347043268
119.0,0.3880201338223573,0.38931771702825047,-0.0006704067231227406
119.5,0.3851312206085504,0.38642880381444356,0.0008617399627068867
120.0,0.38114374195203454,0.3824413251579277,0.0018181383846745947
120.5,0.37471384929680074,0.3760114325026939,0.0008260091238457279
121.0,0.37051783339069194,0.3718154165965851,0.0025290973579167875
121.5,0.3633760118563892,0.36467359506228236,0.0017114617736899707
122.0,0.35599778106175217,0.35729536426764535,0.0010424088491743921
122.5,0.34968272040866694,0.3509803036145601,0.001777461757511034
123.0,0.3415983824513882,0.34289596565728137,0.0010360007511140412
123.5,0.3330246938064721,0.3343222770123653,4.550622534837956e-05
124.0,0.32514400909407465,0.32644159229996783,-6.854383357873806e-05
124.5,0.3164868348780101,0.3177844180839033,-0.000837091996882644
125.0,0.3075440873258278,0.30884167053172096,-0.0018353545423230866
125.5,0.29815586696715624,0.2994534501730494,-0.003294105472042841
126.0,0.29126128026419607,0.29255886347008925,-0.002349837222579476
126.5,0.28407953371423666,0.28537711692012985,-0.001863544626067637
127.0,0.2760699422483082,0.2773675254542014,-0.002460460151391952
127.5,0.26977764974969737,0.27107523295559055,-0.0016839110329716078
128.0,0.26302376818413686,0.26432135139003005,-0.0018045603535498667
128.5,0.2581753252796939,0.2594729084855871,-0.0005496126671682422
129.0,0.2537348405589243,0.2550324237648175,0.0004878610014564244
129.5,0.24905868710274304,0.2503562703086362,0.0005686550237015697
130.0,0.2463410165338728,0.24763859973976599,0.0017930052427513332
130.5,0.2435579004367876,0.24485548364268078,0.002046660826834773
131.0,0.24206539050386,0.24336297370975318,0.0026011387282089404
131.5,0.2407802775330267,0.24207786073891988,0.002296909665167046
132.0,0.241134051760894,0.24243163496678719,0.002499969800858065
132.5,0.24210421620952008,0.24340179941541326,0.002135883804161881
133.0,0.24429577590325485,0.24559335910914804,0.0017740388432468113
133.5,0.24723858945783656,0.24853617266372974,0.0009276968533817598
134.0,0.25156143862095226,0.25285902182684544,0.00023058826822125456
134.5,0.2571371628198483,0.25843474602574146,-0.00041572754975893744
135.0,0.26347351461129304,0.2647710978171862,-0.0014492056408885179
135.5,0.27134024850373206,0.27263783170962524,-0.0020189751518537857
136.0,0.28014892572694355,0.28144650893283674,-0.002604950172859999
136.5,0.2900364910684068,0.29133407427429997,-0.0029344384178074945
137.0,0.3010564695952558,0.30235405280114896,-0.002791981602503324
137.5,0.3131852589885023,0.3144828421943955,-0.00201500624267531
138.0,0.3264219771339668,0.32771956033986,-0.00039684740970363785
138.5,0.3389803007243109,0.3402778839302041,0.0005013039994628543
139.0,0.3520120904396056,0.35330967364549876,0.0020693774723111735
139.5,0.36338052930830766,0.36467811251420085,0.002416138311533478
140.0,0.3738342127152816,0.3751317959211748,0.0025372057300486195
140.5,0.3824978878979367,0.3837954711038299,0.0017992288011603463
141.0,0.3892999362861588,0.39059751949205196,0.00036049875351318317
141.5,0.395306465272746,0.39660404847863917,-0.00050192797330878
142.0,0.3995277666541392,0.4008253498600324,-0.0015926130577932351
142.5,0.40314970784648646,0.40444729105237964,-0.0015728206479306839
143.0,0.405802985616544,0.40710056882243717,-0.0006971231682956769
143.5,0.40617303554981826,0.40747061875571144,-0.00020847713078958607
144.0,0.40448200865881984,0.405779591864713,0.00013990702907173969
144.5,0.40074101179845534,0.4020385950043485,0.00033436526135860456
145.0,0.3952636511188762,0.39656123432476936,0.0006135532029247215
145.5,0.388148123135524,0.3894457063414172,0.0009516842757749111
146.0,0.37942151106548105,0.38071909427137424,0.0012061008847455978
146.5,0.3692235304467452,0.3705211136526384,0.0013065679688694654
147.0,0.35695839099611354,0.3582559742020067,0.0004149989778229335
147.5,0.3438140516322753,0.3451116348381685,-0.000545209161034732
148.0,0.33011295747195285,0.33141054067784603,-0.001526427204716796
148.5,0.3167304974766326,0.3180280806825258,-0.0019248902154708758
149.0,0.30463816044462955,0.30593574365052273,-0.0010233852782038921
149.5,0.292402614691559,0.29370019789745216,-0.00047823626388832086
150.0,0.2808300622646788,0.282127645470572,0.0003376786918747321
150.5,0.2693321624872369,0.2706297456931301,0.0007110200196056016
151.0,0.25774000196403,0.2590375851699232,0.00040857224221402255
151.5,0.246568370478062,0.24786595368395517,-5.6313951524167294e-05
152.0,0.23632786688387653,0.2376254500897697,-0.00011445266118306763
152.5,0.22664322873686127,0.22794081194275445,-3.0425074192819146e-05
153.0,0.21752661641835608,0.21882419962424926,0.0003581199858100903
153.5,0.20814329323153824,0.20944087643743142,0.0003898917944413771
154.0,0.199030489298523,0.20032807250441617,0.0007803508870254106
154.5,0.1889126662165308,0.19021024942242398,0.0004180650734782465
155.0,0.1781086503379359,0.1794062335438291,-0.0002456040768326895
155.5,0.16756569026916168,0.16886327347505486,-0.00017664248503529434
156.0,0.15614794044798946,0.15744552365388265,-0.0004794083359944967
156.5,0.14444796721179207,0.14574555041768525,-0.0005890344304748663
157.0,0.13320270773141696,0.13450029093731014,0.00014648244365139673
157.5,0.1203914510544552,0.12168903426034838,-0.0004283395599434109
158.0,0.1085391990056537,0.10983678221154689,3.872024292261855e-05
158.5,0.09660441346600952,0.0979019966719027,0.00031012030589430695
159.0,0.08486126751753117,0.08615885072342436,0.000456849015223984
159.5,0.0733787788893262,0.07467636209521938,0.0003531339370712733
160.0,0.0622801041182944,0.06357768732418759,-5.0666651584763134e-05
160.5,0.05193069418098755,0.05322827738688073,-0.000529429232206953
161.0,0.042990312264075625,0.04428789546996881,-0.0005245536862823127
161.5,0.03502317538266682,0.03632075858856,-0.0005310828701257445
162.0,0.02815752629731853,0.029455109503211716,-0.000439064940530684
162.5,0.021841461381218376,0.02313904458711156,-0.0007817000869597794
163.0,0.017349889760508164,0.01864747296640135,-0.00023454428533348226
163.5,0.01395217596217976,0.015249759168072944,0.0005447149132547478
164.0,0.010604451352593226,0.01190203455848641,0.0006007848727209893
164.5,0.008112281467628057,0.009409864673521241,0.000836034174649905
165.0,0.006272771847861684,0.007570355053754869,0.0011461355406537513
165.5,0.004886675058648279,0.006184258264541463,0.0014269859330634993
166.0,0.003866813262237527,0.005164396468130711,0.0016793517063330354
166.5,0.0029447084591046,0.004242291664997785,0.001713094834324043
167.0,0.002097462138154188,0.0033950453440473724,0.0015728634333840024
167.5,0.0015549437721196725,0.0028525269780128567,0.0015450749623422185
168.0,0.0011196869630171777,0.0024172701689103623,0.0014783324089094685
168.5,0.0005989718110966645,0.0018965550169898488,0.0012165016660097279
169.0,0.0004029554461334944,0.0017005386520266789,0.001198093858127385
169.5,-0.0001704716133014811,0.0011271115925917032,0.000742457157927018
170.0,-0.00031514981114612203,0.0009824333947470623,0.0006716069681581881
170.5,-0.0005499287658143129,0.0007476544400788715,0.00047812196838618274
171.0,-0.00012917772738386187,0.0011684054785093224,0.0009156461348843982
171.5,-0.0004144294194899084,0.000883153786403276,0.0006280828025787444
172.0,-0.0003767355735074625,0.0009208476323857219,0.0006479092922782419
172.5,-0.0012975832058931844,0.0,-0.00030421842816461344
173.0,-0.0009712387321910717,0.0003263444737021127,-2.1414161691058907e-05
173.5,-0.0007436782672702349,0.0005539049386229495,0.00015080369700285173
174.0,-0.0010014623747082562,0.00029612083118492815,-0.00017414404080742297
174.5,-0.0011489947664606232,0.00014858843943256115,-0.00040099438023407925
175.0,-0.000991193072465968,0.00030639013342721646,-0.0003351918079666491
175.5,-0.0005861498910807144,0.00071143331481247,-3.5456219231075684e-05
176.0,-0.00043667641236852175,0.0008609067935246627,-5.25211645647681e-06
176.5,-0.00016524751099228515,0.0011323356949008993,0.0001323285322561091
177.0,-6.855166718988352e-05,0.001229031538703301,8.007070590283381e-05
177.5,-0.00022740618994589073,0.0010701770159472937,-0.0002432298847889515
178.0,0.00017793392281060312,0.0014755171287037876,-1.803068964255296e-05
178.5,0.0003920063125742971,0.0016895895184674814,2.2927907100114484e-07
179.0,0.0007449894861450779,0.002042572692038262,0.0001420149138279083
179.5,0.0004669417123712176,0.001764524918264402,-0.00036203366528607525
180.0,0.0008797330939877909,0.0021773162998809754,-0.00018914249752453914
180.5,0.0009886307056476804,0.002286213911540865,-0.00033279919533847754
181.0,0.001259544464818884,0.0025571276707120685,-0.0003254959406783463
181.5,0.0018090323121470596,0.003106615518040244,-4.8722613314498755e-05
182.0,0.0020093656233346577,0.0033069488292278423,-0.00012791006119508607
182.5,0.002293861972558544,0.0035914451784517286,-0.00012711704468667444
183.0,0.0028004415967516415,0.004098024802644826,9.44951954393071e-05
183.5,0.0027941354663134125,0.004091718672206597,-0.00019487123842933367
184.0,0.0028400392996364996,0.004137622505529684,-0.0004267497924945081
184.5,0.003382921687214747,0.004680504893107932,-0.00015286388578179648
185.0,0.003524149124295089,0.004821732330188273,-0.00026827259796989144
185.5,0.0037833800346521746,0.005080963240545359,-0.0002497536485199063
186.0,0.004285094636733079,0.005582677842626263,3.064543637772057e-05
186.5,0.004721793185273877,0.006019376391167061,0.0002687230372859428
187.0,0.0048303684469789875,0.006127951652872172,0.00020441461343298842
187.5,0.00484991046965673,0.006147493675549914,7.952018305038e-05
188.0,0.004567175321498773,0.005864758527391957,-0.0003168974711543265
188.5,0.005433484973024558,0.006731068178917742,0.00046832586656589143
189.0,0.005568206324623948,0.006865789530517133,0.0005558852510618856
189.5,0.0052362208944984395,0.006533804100391624,0.00021144010422359527
190.0,0.005839392706534975,0.007136975912428159,0.0008370607817281455
190.5,0.005661728557164613,0.006959311763057797,0.0007163831756673029
191.0,0.0044298833445546365,0.005727466550447821,-0.0004248757451738557
191.5,0.004591791441527719,0.0058893746474209035,-0.00014026086790718505
192.0,0.0044363973873012014,0.005733980593194386,-0.00014280804880375218
192.5,0.004567682498123262,0.005865265704016446,0.0001690356672630006
193.0,0.0046637869746604926,0.005961370180553677,0.0004705983051117293
193.5,0.005007320475332367,0.006304903681225551,0.0010413662981623622
194.0,0.003925780477455086,0.00522336368334827,0.00020548160308637292
194.5,0.003730310732551285,0.005027893938444469,0.00027058213090475243
195.0,0.002838482921843568,0.0041360661277367525,-0.0003493341798124121
195.5,0.0022537125375061764,0.0035512957433993606,-0.000654413297029169
196.0,0.0018391171029012608,0.003136700308794445,-0.0007850113831709424
196.5,0.0015214624439803051,0.0028190456498734893,-0.0008176798753097964
197.0,0.0013194592337355023,0.0026170424396286867,-0.0007368089030465688
197.5,0.000981573048515173,0.0022791562544083573,-0.000796767138001126
198.0,0.0009544417878724105,0.002252024993765595,-0.0005534450941013947
198.5,0.0006519411345065775,0.001949524340399762,-0.0005951616077245125
199.0,0.0006853548749669991,0.0019829380808601836,-0.0003124766363411429
199.5,0.000576516119609005,0.0018740993255021894,-0.00018504388876380124
200.0,0.00037876015781590554,0.00167634336370909,-0.00016066174937766787
200.5,-0.00013781155882550114,0.0011597716470676833,-0.00047002191510564983
201.0,1.465557589158236e-06,0.0012990487634823426,-0.00013893258002938978
201.5,-0.0001336432575351124,0.0011639399483580719,-9.780718198278918e-05
202.0,-0.00048285000104644006,0.0008147332048467444,-0.00028627313661550263
202.5,-0.00024486644705590585,0.0010527167588372786,9.72716629702771e-05
203.0,-1.7528205877553014e-05,0.0012800550000156314,0.00045549916125334417
203.5,-0.00014284400335600578,0.0011547392025371785,0.0004470658745709127
204.0,0.000224195213480748,0.0015217784193739324,0.0009177685930022743
204.5,0.00015788991509810762,0.001455473120991292,0.0009427845914813638
205.0,-0.0002342539637865342,0.0010633292421066503,0.0006305547869165967
205.5,0.0003448187966310733,0.0016424020025242576,0.0012790997788857071
206.0,3.386974857275085e-05,0.0013314529544659352,0.0010281526026460343
206.5,9.379915864055978e-05,0.0013913823645337442,0.0011395704978453438
207.0,-0.0002504088508440288,0.0010471743550491555,0.0008392631520977682
207.5,0.00015676447845514767,0.001454347684348332,0.0012836301969396673
208.0,0.0002570712305558621,0.0015546544364490465,0.0014152500145973531
208.5,0.0002631667364281755,0.00156074994232136,0.0014475428829873152
209.0,5.0188724341952725e-05,0.0013477719302351372,0.0012563461049551802
209.5,0.00013917786814049825,0.0014367610740336826,0.0013633329065891062
210.0,0.0002296000537259966,0.001527183259619181,0.0014685350295464243
210.5,0.0002419633736169293,0.0015395465795101137,0.001492961638368531
211.0,0.0003284787113267299,0.0016260619172199142,0.00158926303624587
211.5,-9.968955434426782e-05,0.0011978936515489166,0.0011689853821161206
212.0,0.0002762613472573516,0.001573844553150536,0.0015512601823524884
212.5,0.0003576467599855152,0.0016552299658786995,0.0016376833924696425
213.0,0.000553904029982783,0.0018514872358759674,0.001837929878009348
213.5,0.0008129394396851081,0.0021105226455782923,0.0021001053203573714
214.0,0.0006272684801424921,0.0019248516860356766,0.0019168912692708595
214.5,0.0004932450200854002,0.0017908282259785845,0.001784778804988273
215.0,0.0008561427543696419,0.0021537259602628263,0.002149154128585624
215.5,0.0010275225702157714,0.002325105776108956,0.00232166968179173
216.0,0.0008882274086029841,0.0021858106144961686,0.002183242358324868
216.5,0.0005662885024002883,0.0018638717082934727,0.0018619626902872978
217.0,0.00045738184538530286,0.0017549650512784874,0.0017535538786978965
217.5,0.0006972169228832033,0.0019948001287763877,0.001993762723017849
218.0,0.0006703842637810789,0.001967967469674263,0.0019672090395061264
218.5,0.00028266135259194086,0.0015802445584851253,0.0015796931404515428
219.0,0.000304323655328278,0.0016019068612214624,0.0016015081625844452
219.5,0.0007345143775597847,0.002032097583452969,0.0020318108971414343
220.0,0.0013851987582386067,0.0026827819641317913,0.0026825769576542874
