wavelength,absorbance,absorbance_bk,residual_3gauss
117.0,0.828351132639439,0.8325283399990925,0.0036672143907144905
117.5,0.8243340739585694,0.8285112813182228,0.001228485348134578
118.0,0.8163798750045741,0.8205570823642275,-0.0035707645450900882
118.5,0.8093349417902195,0.8135121491498729,-0.005912702571266526
119.0,0.8065148444107283,0.8106920517703817,-0.0025218295507358768
119.5,0.7976959325236942,0.8018731398833476,-0.003673545790063293
120.0,0.7936236529400523,0.7978008602997058,0.001314009680606465
120.5,0.784288186387131,0.7884653937467845,0.002355459507269564
121.0,0.7757831366947798,0.7799603440544333,0.005456759088625751
121.5,0.7611806069454595,0.765357814305113,0.003590173432279742
122.0,0.7461648114854138,0.7503420188450672,0.002327812904091342
122.5,0.732977447462251,0.7371546548219045,0.0037869602731117613
123.0,0.7174994083224233,0.7216766156820767,0.0037117855358237417
123.5,0.6989762995819033,0.7031535069415568,0.0011989288453061464
124.0,0.6811836282327811,0.6853608355924345,-0.00013715069041719818
124.5,0.6634176858333692,0.6675948931930227,-0.0011730073811480057
125.0,0.6442764056674731,0.6484536130271266,-0.0034949029589905756
125.5,0.6275767100668397,0.6317539174264931,-0.0034808014635452356
126.0,0.6104598535497133,0.6146370609093668,-0.004194110468991097
126.5,0.5940596018923081,0.5982368092519615,-0.004714277277255485
127.0,0.5789301621293657,0.5831073694890191,-0.004707273902573084
127.5,0.5653797831209769,0.5695569904806304,-0.004090003142262044
128.0,0.5544250626559604,0.5586022700156138,-0.0020735483466606253
128.5,0.5440577669368173,0.5482349742964707,-0.0008934302134547822
129.0,0.5360918979043922,0.5402691052640456,0.0010408809310998857
129.5,0.528790509338618,0.5329677166982715,0.001776695456406796
130.0,0.52497313065874,0.5291503380183934,0.0039299105929705425
130.5,0.5220528892252178,0.5262300965848712,0.004726931339063212
131.0,0.5211358742194552,0.5253130815791086,0.005109168560947341
131.5,0.52221446988938,0.5263916772490335,0.004931731399048567
132.0,0.5253994656441335,0.529576673003787,0.004200980870040616
132.5,0.5312817432736404,0.5354589506332939,0.0034415762641746284
133.0,0.5396988541246371,0.5438760614842906,0.0024681341026770998
133.5,0.5502689842717609,0.5544461916314143,0.0009237858429426149
134.0,0.5636269954293277,0.5678042027889811,-0.000479901106896774
134.5,0.5788952095087097,0.5830724168683631,-0.002489196587091125
135.0,0.596982140898586,0.6011593482582395,-0.0040076883152969645
135.5,0.6171786172290062,0.6213558245886597,-0.0054997271616652466
136.0,0.639643501690967,0.6438207090506204,-0.006505791276391282
136.5,0.6638940724696377,0.6680712798292912,-0.007154839194116969
137.0,0.6910742910967308,0.6952514984563842,-0.005900494509866516
137.5,0.7190861758677969,0.7232633832274503,-0.004395861322768035
138.0,0.7495777136599907,0.7537549210196441,-0.0005134881412481862
138.5,0.7789437072854996,0.783120914645153,0.0026460324563875037
139.0,0.8074375369511732,0.8116147443108266,0.005854988254103244
139.5,0.833410750643779,0.8375879580034324,0.007986153726990297
140.0,0.8561250885592115,0.860302295918865,0.00881198136147976
140.5,0.8744954516525072,0.8786726590121606,0.007734232276263575
141.0,0.8871768759508979,0.8913540833105513,0.0038574884533402187
141.5,0.8967581254535818,0.9009353328132352,0.00016956664434053526
142.0,0.9032204488695574,0.9073976562292109,-0.0030121959083396765
142.5,0.9070472997325008,0.9112245070921542,-0.004942549195704582
143.0,0.9083800518801928,0.9125572592398462,-0.0053023597521989485
143.5,0.9064516215781104,0.9106288289377639,-0.004772710359335242
144.0,0.900641244070898,0.9048184514305514,-0.0039853876011325395
144.5,0.8910969067951754,0.8952741141548288,-0.002902833611337363
145.0,0.8790703758368702,0.8832475831965236,-0.0004822314575547715
145.5,0.8629224802336266,0.86709968759328,0.0013342839278398522
146.0,0.8436906131198109,0.8478678204794643,0.003195507191892877
146.5,0.8203646435028628,0.8245418508625162,0.0036294589833535396
147.0,0.7944176173523747,0.7985948247120281,0.003590419982119619
147.5,0.7640879230271389,0.7682651303867923,0.0007610782212258416
148.0,0.732911739970464,0.7370889473301174,-0.001891987127291328
148.5,0.7030223672546135,0.707199574614267,-0.0027938172238857195
149.0,0.6756084761898016,0.679785683549455,-0.0012768030619976223
149.5,0.6490627094084677,0.6532399167681211,0.0005932195102998916
150.0,0.6229410660176924,0.6271182733773458,0.001999161778366454
150.5,0.5967185828348516,0.600895790194505,0.0021468041146793793
151.0,0.5705083259574972,0.5746855333171507,0.000996096262156132
151.5,0.5454594810306209,0.5496366883902744,-0.0003360322833900753
152.0,0.5215943738244505,0.5257715811841039,-0.0017424581339082756
152.5,0.49995105543019425,0.5041282627898477,-0.0019958519443659117
153.0,0.48054524553401856,0.48472245289367205,-0.0008075005367143562
153.5,0.4611467661400074,0.46532397349966087,-7.841481309894816e-05
154.0,0.44174512526178333,0.4459223326214368,0.000534114564359145
154.5,0.42141618019526433,0.4255933875549178,0.0004491979346893382
155.0,0.400856875658713,0.40503408301836646,0.000664312577133841
155.5,0.37819123154992873,0.3823684389095822,-0.0004672543936419804
156.0,0.355362358438534,0.35953956579818747,-0.0008660759209483948
156.5,0.3317720804455272,0.3359492878051807,-0.0010998526107072748
157.0,0.30844702543824004,0.31262423279789353,-0.00022040823019103817
157.5,0.28415728237748195,0.28833448973713544,0.00036165988766767576
158.0,0.2600820575845194,0.2642592649441729,0.0015580667354149202
158.5,0.23501340251165936,0.23919060987131285,0.0018288328733978565
159.0,0.2099568207165209,0.21413402807617438,0.0018094880271214697
159.5,0.18513881247070268,0.18931601983035617,0.001346758097159173
160.0,0.1609616587332452,0.16513886609289868,0.0004803098119674498
160.5,0.13769920667182867,0.14187641403148216,-0.0008380481943844886
161.0,0.11689760833162476,0.12107481569127823,-0.00132552175465607
161.5,0.0975405412987292,0.10171774865838268,-0.0021913480168573307
162.0,0.08087138269242923,0.0850485900520827,-0.0023094706350714894
162.5,0.06677824737188943,0.07095545473154291,-0.0018345380190176591
163.0,0.05481207032216615,0.058989277681819635,-0.0011900718298094026
163.5,0.04376355883991519,0.04794076619956867,-0.001501649655285757
164.0,0.035896212210978426,0.04007341957063191,-0.0003764200353864322
164.5,0.029705918898515635,0.03388312625816912,0.0008430104122581147
165.0,0.023556413988725943,0.027733621348379422,0.0007008675292183401
165.5,0.01981621390730379,0.02399342126695727,0.001753280042617815
166.0,0.016873458116490794,0.021050665476144273,0.002573217885032203
166.5,0.014095779030769948,0.018272986390423428,0.0027027539370519642
167.0,0.012166719975627007,0.01634392733528049,0.002984219206757479
167.5,0.010260859811896752,0.014438067171550233,0.002732239321457882
168.0,0.00847762879817242,0.0126548361578259,0.002166317959715204
168.5,0.0077149240559979135,0.011892131415651395,0.0022846791679882895
169.0,0.007128718404970486,0.011305925764623966,0.002325148838254864
169.5,0.006217160433238752,0.010394367792892233,0.0018511880976387687
170.0,0.005332287136065109,0.00950949449571859,0.0012658723797571575
170.5,0.0047945382276534205,0.0089717455873069,0.0009287494306458362
171.0,0.004630474742043778,0.008807682101697259,0.0008957967446712733
171.5,0.003555055006608528,0.007732262366262009,-9.62834037884757e-05
172.0,0.0033589536651820414,0.007536161024835522,-0.0002410048941541591
172.5,0.003122606829270358,0.007299814188923839,-0.0004466086265170841
173.0,0.0027094526009840587,0.00688665996063754,-0.0008416621309314263
173.5,0.002324677652300229,0.0065018850119537095,-0.0012154077788038894
174.0,0.0017321918928586363,0.005909399252512117,-0.001800099672633326
174.5,0.0018263006418102804,0.006003508001463762,-0.0016988199969128785
175.0,0.0016356852782514024,0.0058128926379048835,-0.0018811263564313995
175.5,0.001228470751315223,0.005405678110968704,-0.0022777188541512087
176.0,0.0016115890003599923,0.005788796360013474,-0.0018808905635466612
176.5,0.0009680912264851838,0.005145298586138665,-0.0025070867437313165
177.0,0.0017992531966935276,0.005976460556347009,-0.0016547119588515282
177.5,0.0014495187123824147,0.005626726072035896,-0.0019791275796138506
178.0,0.0010279489955517768,0.005205156355205258,-0.002371162942468921
178.5,0.0010143473969455655,0.005191554756599047,-0.0023509644187849977
179.0,0.0008538137212879011,0.005031021080941382,-0.00247342370509049
179.5,0.00154005404143638,0.005717261401089861,-0.001744856472824052
180.0,0.0013316666700311144,0.0055088740296845955,-0.0019067087046432162
180.5,0.0010383207947749751,0.005215528154428457,-0.002149372883234262
181.0,0.0017342106686328647,0.005911418028286345,-0.0013987302692309847
181.5,0.0016521394414174284,0.005829346801070909,-0.00142206461220572
182.0,0.00137840703981166,0.005555614399465141,-0.0016331725166090112
182.5,0.0016122334714165664,0.005789440831070048,-0.0013329388452212607
183.0,0.0019269660787824055,0.006104173438435887,-0.0009481284761067611
183.5,0.0016302855011654867,0.005807492860818967,-0.0011711795516081425
184.0,0.0019149571222448376,0.006092164481898319,-0.0008094513727702592
184.5,0.0020976385122014607,0.006274845871854942,-0.0005464163855472999
185.0,0.002268695984101844,0.006445903343755326,-0.00029184310887169895
185.5,0.002468625179435582,0.006645832539089063,-5.3750699160757046e-06
186.0,0.00204864994882679,0.006225857308480271,-0.00033593146753131686
186.5,0.0027610003668401568,0.006938207726493638,0.00046857128344394896
187.0,0.0028597410493581056,0.007036948409011586,0.0006620483007271517
187.5,0.002814204401260296,0.006991411760913778,0.000713679906831099
188.0,0.0026316093177842456,0.006808816677437726,0.0006305307500325472
188.5,0.002899551858602522,0.007076759218256004,0.0010000408937723328
189.0,0.003282255913708784,0.007459463273362265,0.0014862768935808481
189.5,0.0032934473717628815,0.0074706547314163626,0.0016028063717392939
190.0,0.0037374495558410254,0.007914656915494506,0.0021537938538968753
190.5,0.0036690842400713486,0.00784629159972483,0.00219390218022096
191.0,0.0038000353732352498,0.007977242732888731,0.0024346566161552114
191.5,0.003593544131569041,0.007770751491222522,0.002339140283966202
192.0,0.0035386499959502668,0.007715857355603747,0.002396235609197425
192.5,0.004026874955294417,0.008204082314947899,0.002997308882806397
193.0,0.003946184925348514,0.008123392285001994,0.0030301720271558273
193.5,0.003976561625918878,0.008153768985572359,0.0031746548079290924
194.0,0.003666054019507884,0.007843261379161366,0.0029786565940363345
194.5,0.0036285035703311607,0.007805710929984642,0.0030558719236404488
195.0,0.003406074824102287,0.007583282183755768,0.002948321375919551
195.5,0.003032401900805354,0.0072096092604588356,0.00268949834009175
196.0,0.0027298865827274444,0.0069070939423809255,0.0025016673633587146
196.5,0.0031639385988130207,0.007341145958466502,0.0030501046782954264
197.0,0.001962954958697227,0.006140162318350708,0.001963077762590735
197.5,0.0015248314843452659,0.005702038843998747,0.0016383570786964495
198.0,0.00118557731651825,0.005362784676171731,0.0014118307703187265
198.5,0.0004500548715454219,0.004627262231198903,0.0007882447910274137
199.0,-0.00012323493280274255,0.004053972426850738,0.0003259882836549031
199.5,-0.00094363875062092,0.003233568609032561,-0.00038439235783900225
200.0,-0.001407534386279138,0.002769672973374343,-0.00073937694992575
200.5,-0.0015145751737220387,0.0026626321859314424,-0.0007387158001650866
201.0,-0.002156544086987455,0.0020206632726660263,-0.0012742837371074191
201.5,-0.002030538033235894,0.002146669326417587,-0.0010432643404797762
202.0,-0.0026092448215003683,0.0015679625381531128,-0.0015184268645448613
202.5,-0.002491121011724141,0.0016860863479293401,-0.0012983040588177052
203.0,-0.0026404856006170523,0.0015367217590364288,-0.0013472858422281676
203.5,-0.003125857369960725,0.0010513499896927562,-0.001733956655861884
204.0,-0.0034432108677450446,0.0007339964919084365,-0.001954351464113156
204.5,-0.003704719256834008,0.00047248810281947306,-0.002120698638352128
205.0,-0.0035341779646468527,0.0006430293950066284,-0.0018568436559539899
205.5,-0.003434631558502306,0.000742575801151175,-0.0016658760386618968
206.0,-0.003797250238009143,0.00037995712164433804,-0.0019390059209572915
206.5,-0.0036749910833081224,0.0005022162763453587,-0.001729225386504309
207.0,-0.0033975534692150975,0.0007796538904383836,-0.0013662639819554748
207.5,-0.003954390149100461,0.00022281721055302049,-0.0018395999111714407
208.0,-0.004177207359653481,0.0,-0.0019809602602057098
208.5,-0.0038893431086718055,0.00028786425098167564,-0.0016136994143860321
209.0,-0.003465707917428261,0.00071149944222522,-0.0011127399382294659
209.5,-0.0040414794546791595,0.0001357279049743216,-0.0016132673544376095
210.0,-0.003656809604565089,0.0005203977550883921,-0.0011554373634068676
210.5,-0.003640718981225301,0.0005364883784281802,-0.0010682705152640177
211.0,-0.003410477673732248,0.0007667296859212333,-0.0007690331172318101
211.5,-0.003754240112333284,0.0004229672473201971,-0.0010458722665222036
212.0,-0.0036939379044427768,0.00048326945521070435,-0.0009207088564267346
212.5,-0.0031923738437005275,0.0009848335159529536,-0.00035633175816486345
213.0,-0.003640203595664332,0.0005370037639891492,-0.0007433796813245339
213.5,-0.0035502619864525744,0.0006269453732009067,-0.0005946676385012682
214.0,-0.003311517684627411,0.00086568967502607,-0.00029914180374312994
214.5,-0.003840898936309543,0.00033630842334393804,-0.0007737054241377162
215.0,-0.003659885960928544,0.000517321398724937,-0.0005398113913205559
215.5,-0.0033079714190166875,0.0008692359406367936,-0.00013692288372006201
216.0,-0.0034743790795372037,0.0007028282801162774,-0.00025423220647032734
216.5,-0.003288987586705308,0.0008882197729481729,-2.1584728424692474e-05
217.0,-0.003013041319051419,0.001164166040602062,0.0002998100914707748
217.5,-0.0036081027720495313,0.0005691045876039498,-0.0002515738424244873
218.0,-0.003546421995287251,0.0006307853643662299,-0.00014794885983371352
218.5,-0.0029642037801700543,0.0012130035794834268,0.0004745191316521207
219.0,-0.0029547686037624007,0.0012224387558910804,0.0005225495511354108
219.5,-0.0030906316996828502,0.0010865756599706309,0.000423667926711644
220.0,-0.003194074520950569,0.000983132838702912,0.00035563429088413933
