wavelength,absorbance,absorbance_bk,residual_3gauss
117.0,0.22744669242920393,0.22947459236205756,-0.000692635915178319
117.5,0.22668548663966984,0.22871338657252346,-0.0001743360967109142
118.0,0.22534751558161825,0.22737541551447188,0.00014010771991063153
118.5,0.22190300034802468,0.2239309002808783,-0.0012889666431299962
119.0,0.21983622321833857,0.2218641231511922,-0.000989366029815919
119.5,0.2184893930884076,0.22051729302126122,0.00036681516010111936
120.0,0.2154161009037952,0.21744400083664883,0.0003166400373967315
120.5,0.21346094896694665,0.21548884889980027,0.0016859439984503732
121.0,0.2105138317914572,0.21254173172431082,0.0023435950867248534
121.5,0.2059667986935044,0.20799469862635803,0.0016583288589559764
122.0,0.2005755299773532,0.20260342991020683,0.0003601890910161498
122.5,0.19671396446936645,0.19874186440222008,0.0007951125488896704
123.0,0.19156243548340224,0.19359033541625587,0.00011301662180171479
123.5,0.1864978634104864,0.18852576334334004,-0.0003420587887404958
124.0,0.18165675438665896,0.18368465431951259,-0.0004690007629745696
124.5,0.1762997070338814,0.17832760696673502,-0.0010451554569609611
125.0,0.17111607525418063,0.17314397518703425,-0.0014216860409353715
125.5,0.1662684758782734,0.16829637581112702,-0.001479056904756415
126.0,0.16130523144833425,0.16333313138118788,-0.0017145411807422406
126.5,0.1581684510513779,0.16019635098423152,-0.00023403435247246196
127.0,0.1523287490175299,0.15435664895038353,-0.0016171585874217576
127.5,0.1487475810633767,0.15077548099623034,-0.0009546620205906076
128.0,0.1450155779675996,0.14704347790045322,-0.000709716832741375
128.5,0.14226219316622607,0.1442900930990797,0.00019221526928661636
129.0,0.1392722542811589,0.14130015421401254,0.000480553034143294
129.5,0.13666946112648198,0.1386973610593356,0.000723853145612241
130.0,0.13475126160731,0.13677916154016362,0.0011655914854675764
130.5,0.13301845752597996,0.1350463574588336,0.0012548191910367046
131.0,0.13196568248639243,0.13399358241924605,0.0014378276622544761
131.5,0.13142619517480875,0.13345409510766237,0.0015042497547952394
132.0,0.13160028106663335,0.13362818099948698,0.0016168654718774211
132.5,0.13171206644070332,0.13373996637355695,0.0009698822933648654
133.0,0.1329638067503131,0.13499170668316673,0.0007447095960008698
133.5,0.13454905586809968,0.1365769558009533,0.00012458291877404104
134.0,0.13729693072883314,0.13932483066168677,-5.9805077125413275e-05
134.5,0.140420499189506,0.14244839912235963,-0.0005807018870442882
135.0,0.14398243779990277,0.1460103377327564,-0.0013466394426958073
135.5,0.14851975441894835,0.15054765435180198,-0.001776995779050189
136.0,0.15366380094756207,0.1556917008804157,-0.002181610830045283
136.5,0.15992877987499635,0.16195667980784997,-0.0019723080139400218
137.0,0.16669701185899463,0.16872491179184826,-0.0016780997721173585
137.5,0.17390801074116505,0.17593591067401868,-0.0012570629954511414
138.0,0.18194279963904628,0.1839706995718999,-0.0002134673697061218
138.2,0.18554169590198832,0.18756959583484195,0.000560326221680757
138.4,0.1886706708851592,0.19069857081801284,0.0008603194253789803
138.6,0.19175983996268248,0.1937877398955361,0.001125201466103204
138.8,0.19465294957871632,0.19668084951156994,0.0012074401117708744
139.0,0.19745309383456783,0.19948099376742146,0.0012189669894436816
139.2,0.19999263642093232,0.20202053635378595,0.0010010667423509811
139.4,0.20267557552757143,0.20470347546042506,0.0009667077804789148
139.6,0.20542921991483848,0.2074571198476921,0.0010521829399843252
139.8,0.2082203043224611,0.21024820425531474,0.0012331883678797506
140.0,0.21044389964358187,0.2124717995764355,0.0009136962106973123
140.2,0.21266617440990637,0.21469407434276,0.0006686778127921456
140.4,0.2148776602472732,0.21690556018012683,0.0004973302520352163
140.6,0.21686787553172343,0.21889577546457706,0.00019766061950465819
140.8,0.21899793292184744,0.22102583285470107,0.00013905390313606603
141.0,0.22087934352472863,0.22290724345758225,-5.896257590709553e-05
141.2,0.22238490948723064,0.22441280942008426,-0.0005158661840739265
141.4,0.22453678070079175,0.22656468063364538,-0.0002021215603560944
141.6,0.22538585252744087,0.2274137524602945,-0.0010598216462426313
141.8,0.22693472600863357,0.2289626259414872,-0.001079765481501349
142.0,0.2280440370180317,0.23007193695088532,-0.0013951660809039257
142.2,0.22974895094003556,0.23177685087288918,-0.0009651915802516287
142.4,0.23077311851620652,0.23280101844906015,-0.0010610437736738032
142.6,0.23174239590202236,0.233770295834876,-0.0010522707578923818
142.8,0.232771120514632,0.23479902044748563,-0.0008205218550446092
143.0,0.23345939199652005,0.23548729192937368,-0.0007622952357331236
143.2,0.23372471473127596,0.23575261466412958,-0.0009573215473616947
143.4,0.23414806356728177,0.2361759635001354,-0.0008225216283888614
143.6,0.23485566405393316,0.23688356398678678,-0.0002302467363257399
143.8,0.2354940754041747,0.23752197533702832,0.00046678719477508124
144.0,0.23547068850079192,0.23749858843364555,0.0006759838566902654
144.2,0.23500557784895243,0.23703347778180606,0.000616708603181082
144.4,0.2341241939548654,0.23615209388771902,0.00031297496837079386
144.6,0.23343835738682409,0.2354662573196777,0.0003744371863741991
144.8,0.23308042725789116,0.2351083271907448,0.0009305617049081838
145.0,0.23138428197497396,0.2334121819078276,0.00031161577769853177
145.2,0.23064724738851045,0.23267514732136407,0.0008106084918871326
145.4,0.22875900010134556,0.2307869000341992,0.0003122121876270312
145.6,0.2279990915748474,0.23002699150770103,0.0010903100773281271
145.8,0.22613702450717696,0.2281649244400306,0.0009081016733770986
146.0,0.22434902822440975,0.22637692815726337,0.0009349128567201492
146.2,0.22191221476647324,0.22394011469932687,0.0004403923107864638
146.4,0.2201323715150348,0.22216027144788844,0.0007223501540928601
146.6,0.21771780598650897,0.2197457059193626,0.0004806543175600031
146.8,0.21596007607450493,0.21798797600735856,0.000998017803559681
147.0,0.21288073555893544,0.21490863549178907,0.0002868064201016485
147.2,0.2098906715494173,0.21191857148227092,-0.0002515566481324505
147.4,0.20756482481605695,0.20959272474891058,-5.179887153683449e-05
147.6,0.20444896992431097,0.2064768698571646,-0.0005779425763476898
147.8,0.2019444619780312,0.20397236191088483,-0.00043847908540062264
148.0,0.1991943225494421,0.20122222248229574,-0.000500200887603719
148.2,0.1963471006747288,0.19837500060758242,-0.0006242567155278766
148.4,0.19360947047724145,0.19563737041009507,-0.0006134688139484423
148.6,0.1900747397985479,0.19210263973140151,-0.0013837389444646409
148.8,0.18738059525966824,0.18940849519252187,-0.0013062187011441961
149.0,0.18475757634726492,0.18678547628011855,-0.001158752600562557
149.2,0.18270883899909987,0.1847367389319535,-0.0004460345773867336
149.4,0.18005912474047683,0.18208702467333046,-0.00035056297075924947
149.6,0.1777544771784053,0.17978237711125894,6.714665482687732e-05
149.8,0.17521143894514915,0.17723933887800278,0.0002178228018732964
150.0,0.17256351906201695,0.17459141899487057,0.0002299623003365614
150.5,0.1663327596157009,0.16836065954855453,0.00047699386290811496
151.0,0.1600337522170903,0.16206165214994392,0.0003816424095720583
151.5,0.15417604863544843,0.15620394856830205,0.00044952821203206317
152.0,0.14835160124383112,0.15037950117668475,0.0003039583401092394
152.5,0.14264693405320275,0.14467483398605638,9.408662812099289e-05
153.0,0.13732260968398483,0.13935050961683845,0.0001675266183962243
153.5,0.13224726739193687,0.1342751673247905,0.0004951920247069364
154.0,0.12644826130116735,0.12847616123402097,0.00021118633321323688
154.5,0.12043814204227044,0.12246604197512406,-7.200385154722266e-05
155.0,0.11431135341751424,0.11633925335036786,-0.00017752134726013724
155.5,0.10842842202975005,0.11045632196260367,0.00031101252000946544
156.0,0.10142023393579848,0.1034481338686521,4.7332295508698e-05
156.5,0.09420954816406382,0.09623744809691745,-5.9163489602900854e-05
157.0,0.08675874709896567,0.0887866470318193,-9.535822301964814e-05
157.5,0.07895999633534409,0.08098789626819772,-0.00025057221292462684
158.0,0.07134441241160772,0.07337231234446134,-0.00010083175635822172
158.5,0.06337406286420415,0.06540196279705777,-0.0003082311608117866
159.0,0.05625520146146675,0.05828310139432038,0.00020202611036646695
159.5,0.048466951239237166,0.05049485117209079,-0.0002199211928880715
160.0,0.04153325944214811,0.04356115937500174,-0.00016778514177845372
160.5,0.03469098125700309,0.036718881189856716,-0.0005038798183862811
161.0,0.02904420395858621,0.03107210389143984,-0.00019982498853661143
161.5,0.023431483281305118,0.025459383214158745,-0.0004667409134400044
162.0,0.01935239340530153,0.021380293338155158,0.00017153978187462587
162.5,0.01469534397422322,0.016723243907076846,-0.0003954956890600825
163.0,0.011932605858975164,0.013960505791828792,0.00032664848237598
163.5,0.009138720022155605,0.01116661995500923,0.0004515484443246877
164.0,0.007088731541786807,0.009116631474640435,0.0008053126503019484
164.5,0.005649061998058857,0.007676961930912484,0.0013127213190484996
165.0,0.0033861299007942303,0.005414029833647856,0.0006015522115622928
165.5,0.0023294789994429766,0.004357378932296603,0.0007621153404701766
166.0,0.000972868474952428,0.0030007684078060546,0.00034558609126669314
166.5,0.0008847815594979424,0.0029126814923515687,0.0009726165578176971
167.0,0.00037689395041101134,0.0024047938832646378,0.0010007026739768264
167.5,-0.00021480499329601008,0.0018130949395576165,0.0008048786596242406
168.0,-0.00050785385622207,0.0015200460766315565,0.0007999725373029413
168.5,-0.0007225600005305691,0.0013053399323230573,0.0007918305250276736
169.0,-0.0007342223544318881,0.0012936775784217385,0.0009257844488462959
169.5,-0.0018502881379417204,0.0001776117949119061,-8.970934146323035e-05
170.0,-0.0012771705852421726,0.0007507293476114538,0.0005509222799847744
170.5,-0.001062308685474904,0.0009655912473787226,0.00080907112275392
171.0,-0.0013333298283775222,0.0006945701044761042,0.0005634609259990392
171.5,-0.0015255767942280562,0.0005023231386255703,0.0003831933435213709
172.0,-0.0013202851258052248,0.0007076148070484017,0.0005900382668618281
172.5,-0.0015512943914216027,0.00047660554143202374,0.0003520922820631451
173.0,-0.0011570814371118171,0.0008708184957418093,0.0007320298538092972
173.5,-0.001270331562588337,0.0007575683702652895,0.0005977461469361638
174.0,-0.001779857346290873,0.0002480425865627534,6.0596552543600826e-05
174.5,-0.0017294148803761867,0.00029848505247743974,7.66965756637063e-05
175.0,-0.0015458410223831113,0.0004820589104705152,0.0002188698760489497
175.5,-0.0016150656186835494,0.00041283431417007705,0.00010069971034210983
176.0,-0.001298095191248817,0.0007298047416048094,0.0003605944049974621
176.5,-0.0011527330370910468,0.0008751668957625797,0.0004401072092292865
177.0,-0.0013408057163989385,0.000687094216454688,0.0001767443393352777
177.5,-0.00170578524519007,0.0003221146876635564,-0.00027362552287302016
178.0,-0.001438015056052942,0.0005898848768006845,-0.00010196670777796633
178.5,-0.001308427201037216,0.0007194727318164105,-7.976358341917349e-05
179.0,-0.0007170961055780801,0.0013108038272755464,0.00039245590082084576
179.5,-0.0007088762090551019,0.0013190237237985245,0.0002695127184780123
180.0,-0.0007232478306146911,0.0013046521022389355,0.00011176054272663037
180.5,-0.0003667998012409808,0.0016611001316126457,0.00031263155759346756
181.0,3.991880471165024e-05,0.0020678187375652766,0.0005518110805969143
181.5,-8.31204026002433e-05,0.001944779530253383,0.0002497417350781441
182.0,0.00012205142227571376,0.00214995135512934,0.0002651190453427509
182.5,-0.0002830828925952397,0.0017448170402583868,-0.00033957807002008293
183.0,0.0007712354459280297,0.002799135378781656,0.0005066820889212927
183.5,0.0004291986065330855,0.002457098539386712,-5.035844741935105e-05
184.0,0.0009688912637607348,0.0029967911966143615,0.0002692039404348216
184.5,0.0011728151098469202,0.003200715042700547,0.0002499425833332107
185.0,0.0007285900581474372,0.0027564899910010638,-0.0004182234013779167
185.5,0.0006292229081793971,0.0026571228410330236,-0.0007397942077772032
186.0,0.0006205641639925269,0.002648464096846153,-0.000966274466551449
186.5,0.00139816667427632,0.0034260666071299463,-0.0003993639162536331
187.0,0.0013839160698212347,0.003411816002674861,-0.0006143824826377355
187.5,0.0016110180426447695,0.003638917975498396,-0.0005753432374992979
188.0,0.0016928171422122252,0.0037207170750658517,-0.0006661968014600663
188.5,0.0020091431684589834,0.00403704310131261,-0.0005045491378301431
189.0,0.0029892619716940447,0.005017161904547671,0.00034122618161169706
189.5,0.003058846287803135,0.005086746220656762,0.0002988990245469218
190.0,0.0028211361051905188,0.004849036038044145,-2.651133253096013e-05
190.5,0.0035693733784596684,0.005597273311313294,0.0006596514714416971
191.0,0.0030810280986955456,0.005108928031549172,0.0001358690114138597
191.5,0.0029292216910406736,0.0049571216238943,-2.415594790051729e-05
192.0,0.0028904835671937083,0.004918383500047335,-4.375876300368332e-05
192.5,0.0032656788274940834,0.00529357876034771,0.0003776110902842973
193.0,0.003302363472828056,0.005330263405681683,0.0004867538334396909
193.5,0.0033735108481490216,0.0054014107810026486,0.0006554664095376039
194.0,0.0032122067431225613,0.005240106675976188,0.0006152693576451434
194.5,0.002729872627586283,0.004757772560439909,0.0002756718158458465
195.0,0.002597728485528747,0.004625628418382374,0.0003056845594904267
195.5,0.0022995306474149183,0.004327430580268545,0.0001866146339173291
196.0,0.002009076913758746,0.0040369768466123725,8.963183702769342e-05
196.5,0.001863051329792702,0.0038909512626463284,0.00014867727075662833
197.0,0.001322979653800332,0.0033508795866539582,-0.00017751714459593101
197.5,0.0011040510888503563,0.003131951021703983,-0.00017654468765476976
198.0,0.0007940136985968816,0.002821913631450508,-0.00026336985996782856
198.5,0.0007854070415513852,0.0028133069744050118,-4.8042537708572856e-05
199.0,0.0004317408177611765,0.002459640750614803,-0.00017947281568662194
199.5,-0.00036958045198985033,0.0016583194808637762,-0.0007624675462112832
200.0,0.0001157403910817468,0.0021436403239353734,-6.47021334990944e-05
200.5,-0.0003842585471480904,0.001643641385705536,-0.0003598505374152604
201.0,-0.0006643185127220947,0.0013635814201315318,-0.0004440925502256837
201.5,-0.0006729348882520268,0.0013549650446015998,-0.0002670838736819083
202.0,-0.0009230139060512093,0.0011048860268024173,-0.0003426158171814819
202.5,-0.0009431019293245284,0.0010847980035290981,-0.00019985441360894892
203.0,-0.0009312303052770237,0.0010966696275766029,-3.720094937253787e-05
203.5,-0.001251299816383674,0.0007766001164699525,-0.00021869682166797215
204.0,-0.0017185775657606295,0.00030932236709299695,-0.0005595443971336158
204.5,-0.0011132772034706255,0.000914622729383001,0.0001602863783427788
205.0,-0.0018019514260835812,0.00022594850677004532,-0.00042536220823835894
205.5,-0.001369615662653774,0.0006582842701998526,9.901269872477324e-05
206.0,-0.0020278999328536265,0.0,-0.0004776047088132655
206.5,-0.0011813162172446404,0.0008465837156089861,0.00044095771030140386
207.0,-0.0011754967827874163,0.0008524031500662102,0.0005097976617631057
207.5,-0.0010545613633047935,0.000973338569548833,0.0006855495790507118
208.0,-0.0013030496406129524,0.0007248502922406741,0.0004844331832328281
208.5,-0.0015044994027039388,0.0005234005301496876,0.00032365921735564315
209.0,-0.0014374450798118911,0.0005904548530417354,0.000425417684486684
209.5,-0.0015563866350547823,0.0004715132977988442,0.00033589853678317233
210.0,-0.0014090331774185636,0.0006188667554350628,0.0005080402864336002
210.5,-0.0015840777659912556,0.0004438221668623709,0.0003537498435773632
211.0,-0.001619778586864969,0.00040812134598865743,0.0003353181293662799
211.5,-0.0016992916452609889,0.0003286082875926376,0.00027008602538225636
212.0,-0.0016600972459298064,0.0003678026869238201,0.0003210180807346313
212.5,-0.0019334269784703432,9.44729543832833e-05,5.727695898332266e-05
213.0,-0.001949265151622853,7.863478123077338e-05,4.9224395044891414e-05
213.5,-0.0012337975644847402,0.0007941023683688863,0.0007709755119636637
214.0,-0.0016750369660054269,0.0003528629668481996,0.00033477691318077634
214.5,-0.0008793992329698573,0.0011485006998837692,0.0011344343193763781
215.0,-0.0011490670083815675,0.000878832924472059,0.000867952840630213
215.5,-0.001670937993548722,0.0003569619393049045,0.00034859255601527494
216.0,-0.0013572419286986875,0.000670658004154939,0.0006642552620726996
216.5,-0.0010318063086349344,0.0009960936242186921,0.000991222267953976
217.0,-0.0016483740338565393,0.0003795258989970872,0.00037583998572421085
217.5,-0.001285405998984262,0.0007424939338693645,0.0007397202838115458
218.0,-0.0014728640404083415,0.0005550358924452849,0.0005529601686889126
218.5,-0.0014897760400408445,0.000538123892812782,0.0005365789984815578
219.0,-0.001134990384134622,0.0008929095487190046,0.0008917660403745209
219.5,-0.0013858994523572067,0.0006420004804964198,0.0006411587147846443
220.0,-0.001288940048753408,0.0007389598841002186,0.0007383436376092796
