wavelength,absorbance,absorbance_bk,residual_3gauss
117.0,0.18571733295270995,0.1817411879653362,0.000314946180515141
117.5,0.1834490244781151,0.17947287949074134,-0.0009640620157672641
118.0,0.18067135245788604,0.1766952074705123,-0.002448291394897939
118.5,0.18135904890790852,0.17738290392053477,-0.00017098861107531227
119.0,0.1800923048814738,0.17611615989410004,0.0004381956161724765
119.5,0.1782132215068207,0.17423707651944695,0.0007096438135071881
120.0,0.17614057718030726,0.1721644321929335,0.0010485213714855612
120.5,0.17317555738861498,0.16919941240124123,0.0007404826012632482
121.0,0.17042293135449063,0.16644678636711688,0.000872815340003108
121.5,0.1678236121988596,0.16384746721148585,0.0013669591758632693
122.0,0.16432760416993464,0.16035145918256088,0.0011513999227870941
122.5,0.1612617888219684,0.15728564383459465,0.0015293922736424326
123.0,0.15617814117988124,0.1522019961925075,2.7102961503711054e-05
123.5,0.1526017388845844,0.14862559389721064,0.00014154024936954834
124.0,0.14876851696952106,0.1447923719821473,7.822702508400448e-05
124.5,0.14405752895894833,0.14008138397157457,-0.0008166151503163632
125.0,0.13981962106445037,0.1358434760770766,-0.001227455409479633
125.5,0.13591666994855855,0.1319405249611848,-0.0013302547690189348
126.0,0.1322670093341438,0.12829086434677003,-0.001247040528561033
126.5,0.12814109077892555,0.12416494579155181,-0.0017501932217208332
127.0,0.12500580190536315,0.1210296569179894,-0.0014180058845683768
127.5,0.12190797157283292,0.11793182658545918,-0.0012509682022953938
128.0,0.11918761003762007,0.11521146505024633,-0.000958209340089014
128.5,0.11698599154408677,0.11300984655671303,-0.0004489746926626542
129.0,0.11531195272698253,0.11133580773960879,0.00023425211100507048
129.5,0.1134960032154764,0.10951985822810266,0.00037059021976744433
130.0,0.11237595764832586,0.10839981266095212,0.0007472818233385942
130.5,0.11181968868177888,0.10784354369440514,0.0011834919489761564
131.0,0.11136257817046905,0.1073864331830953,0.0011689579681591344
131.5,0.11157664375102624,0.1076004987636525,0.001234450148792865
132.0,0.11245862133048852,0.10848247634311478,0.0013412980999682605
132.5,0.11393435723674294,0.1099582122493692,0.001387301012141559
133.0,0.11582419782859332,0.11184805284121958,0.0011736635372709275
133.5,0.1181826073442891,0.11420646235691537,0.0007461327610982227
134.0,0.12131731847348812,0.11734117348611438,0.0004155774551412028
134.5,0.12511392011695904,0.1211377751295853,8.384489604465473e-05
135.0,0.12905906566998454,0.1250829206826108,-0.0007319937265296839
135.5,0.13417877231688427,0.13020262732951052,-0.000960610981938198
136.0,0.13990156173083687,0.13592541674346312,-0.0011129218489045467
136.5,0.14576508125094256,0.1417889362635688,-0.0015755347877738912
137.0,0.15256145188067372,0.14858530689329996,-0.0014659577425541193
137.5,0.15993504479399767,0.15595889980662392,-0.001035890973626663
138.0,0.16763638792765145,0.1636602429402777,-0.0004189204053203499
138.2,0.170679597183978,0.16670345219660423,-0.00022100953024367653
138.4,0.173485086667415,0.16950894168004124,-0.00025491206847752523
138.6,0.17638133325473748,0.17240518826736373,-0.00018358701004664302
138.8,0.17949422874785517,0.17551808376048142,0.00012754549221119516
139.0,0.18296737291667267,0.17899122792929892,0.0008308635312399837
139.2,0.18575549459074392,0.18177934960337017,0.0008899294094195931
139.4,0.1885143417015666,0.18453819671419286,0.0009693432061281815
139.6,0.1907017025895165,0.18672555760214274,0.0005357264224792324
139.8,0.19373454235483337,0.1897583973674596,0.0010148196535118836
140.0,0.19662097217492,0.19264482718754625,0.001423412391851897
140.2,0.1985658141171273,0.19458966912975353,0.0009748676838717552
140.4,0.200667272098446,0.19669112711107226,0.0007757524909877966
140.6,0.20277198431013987,0.19879583932276612,0.000680849283899776
140.8,0.20442712854583903,0.20045098355846527,0.000245220525844303
141.0,0.20595188545937332,0.20197574047199957,-0.00020436870426807086
141.2,0.20762750150266007,0.20365135651528632,-0.00037942796766723963
141.4,0.208537069638194,0.20456092465082024,-0.0011900002695055811
141.6,0.21022700428145924,0.2062508592940855,-0.0010832257139919144
141.8,0.21151487076223777,0.207538725774864,-0.0012355494763974517
142.0,0.21285196572398943,0.20887582073661567,-0.001190177423694927
142.2,0.21397701388428284,0.21000086889690908,-0.0012034137089033392
142.4,0.21507080048802352,0.21109465550064976,-0.0010900607532030038
142.6,0.21586725670498327,0.21189111171760952,-0.0011123641086198122
142.8,0.21654417822666192,0.21256803323928816,-0.0010893216898074376
143.0,0.21765828759452088,0.21368214260714713,-0.00046164658657871227
143.2,0.21796728343793312,0.21399113845055937,-0.0004697400236833571
143.4,0.2186119728016737,0.21463582781429993,2.8421964832381352e-05
143.6,0.21823079376149968,0.21425464877412592,-0.00032820440564734765
143.8,0.21891097689632527,0.21493483190895152,0.0005474189337756619
144.0,0.21803037028875016,0.2140542253013764,3.222896318805235e-05
144.2,0.21762666234969152,0.21365051736231777,0.00016228060782272347
144.4,0.21684171848212064,0.21286557349474688,7.708397810429757e-05
144.6,0.21611669627918517,0.21214055129181142,0.00021472471076344757
144.8,0.21586256829409553,0.21188642330672178,0.0009823966296490239
145.0,0.2148498627633512,0.21087371777597744,0.0011461572668804154
145.2,0.21353589383170388,0.20955974884433012,0.001158177925547954
145.4,0.21226785615603777,0.20829171116866402,0.0013598632632684515
145.6,0.21048991154706448,0.20651376655969073,0.0011889681222582438
145.8,0.20871594428344728,0.20473979929607353,0.0011523882670401164
146.0,0.20658254793543207,0.20260640294805832,0.0008791878480760851
146.2,0.20518504344843497,0.20120889846106121,0.0014566632727009698
146.4,0.20323981645781192,0.19926367147043816,0.0015927313302829538
146.6,0.2007022294145088,0.19672608442713505,0.001233896967169329
146.8,0.1982843477045496,0.19430820271717586,0.001083039646162992
147.0,0.1955349060981322,0.19155876111075845,0.0006794443103802228
147.2,0.19290991188114193,0.18893376689376817,0.000469472917849989
147.4,0.190045214438038,0.18606906945066426,7.92058569004106e-05
147.6,0.18705923088574064,0.1830830858983669,-0.0003827576901412888
147.8,0.18455587438437904,0.18057972939700528,-0.0003222944138273065
148.0,0.18119658948309944,0.1772204444957257,-0.001087642892255214
148.2,0.17793028292348095,0.1739541379361072,-0.0017393932733889839
148.4,0.17518583177800565,0.1712096867906319,-0.0018578995517413432
148.6,0.171999933857668,0.16802378887029426,-0.0024153503640964302
148.8,0.17004052068704295,0.1660643756996692,-0.0017522789104485736
149.0,0.16726550246471902,0.16328935747734527,-0.0019187435218087356
149.2,0.16527097770146004,0.1612948327140863,-0.0013260471447038014
149.4,0.16280438192319588,0.15882823693582213,-0.00123352232613122
149.6,0.16072405534442452,0.15674791035705077,-0.0007889027574790319
149.8,0.15808692612520955,0.1541107811378358,-0.0009405857049652189
150.0,0.1564365304396501,0.15246038545227636,-0.00014956499862070483
150.5,0.15265722655831956,0.1486810815709458,0.0019599185433412936
151.0,0.1467139496666655,0.14273780467929176,0.0015757206346586339
151.5,0.14111431025239488,0.13713816526502112,0.0012062597647015671
152.0,0.13591118353746592,0.13193503855009217,0.0009383965527930971
152.5,0.13094060974834043,0.12696446476096668,0.0006712885949713976
153.0,0.12622613244273606,0.12224998745536232,0.0005142610484931281
153.5,0.12203535919175428,0.11805921420438054,0.0008349454613001822
154.0,0.11703717854883984,0.1130610335614661,0.00040681731388357567
154.5,0.1122382818409892,0.10826213685361546,0.0003356421855700009
155.0,0.10664917143523128,0.10267302644785754,-0.00028405208751890176
155.5,0.10140143311824006,0.09742528813086632,-0.0002597958427821151
156.0,0.09563772512229408,0.09166158013492035,-0.00041707354547435016
156.5,0.08931775415690675,0.08534160916953301,-0.0007964922147751519
157.0,0.0833756349912296,0.07939949000385586,-0.000496588693389477
157.5,0.07722337995015241,0.07324723496277867,-0.00016761306204982063
158.0,0.07048752742419001,0.06651138243681627,-0.0002696662855542348
158.5,0.0640822130525626,0.06010606806518887,7.477389678274549e-06
159.0,0.05794059484644174,0.053964449859068,0.000483979960939844
159.5,0.051142465826925707,0.04716632083955197,0.00012596260707986584
160.0,0.04461262997770115,0.04063648499032741,-0.0002482881144846155
160.5,0.03856240461245664,0.0345862596250829,-0.0005202380038529728
161.0,0.03326020579508914,0.0292840608077154,-0.0004956609498155753
161.5,0.02872529186908228,0.024749146881708536,-0.0002079969085083122
162.0,0.024122582398958137,0.020146437411584395,-0.0005226040140925634
162.5,0.0209428637780831,0.016966718790709358,4.259724551384028e-05
163.0,0.01794190005673387,0.013965755069360129,0.0002539462376585592
163.5,0.015370283804463132,0.01139413881708939,0.00038859291895825335
164.0,0.01332508592513527,0.009348940937761528,0.0005822885111676172
164.5,0.012097184784297688,0.008121039796923947,0.0011727198356045023
165.0,0.010301353990907196,0.006325209003533454,0.0008258203553021867
165.5,0.009716796215067096,0.005740651227693354,0.001373005388248077
166.0,0.008872681416240265,0.004896536428866523,0.001394048649984398
166.5,0.008289299769620095,0.004313154782246353,0.0014562739895036666
167.0,0.007859708790875924,0.003883563803502182,0.001494926090742625
167.5,0.00757414514808959,0.0035980001607158483,0.0015369168911049738
168.0,0.0069396036754688206,0.0029634586880950787,0.0011202410731575802
168.5,0.006845211893345927,0.0028690669059721853,0.0011595650098997577
169.0,0.00635844984216891,0.002382304854795168,0.0007429169105199599
169.5,0.0064853619164555185,0.0025092169290817767,0.0008925163044364872
170.0,0.006340597339283025,0.0023644523519092834,0.0007354911445725011
170.5,0.005773950835020537,0.0017978058476467952,0.00013108830174720092
171.0,0.006046032465298745,0.002069887477925003,0.0003469623499479709
171.5,0.006355815563719073,0.0023796705763453312,0.0005872662928756022
172.0,0.005703285708280336,0.0017271407209065942,-0.00014424331161292823
172.5,0.005983107314543105,0.002006962327169363,4.982989150515002e-05
173.0,0.005497125027167591,0.0015209800397938495,-0.0005266864681840407
173.5,0.00569596445061205,0.001719819463238308,-0.00042171163355225706
174.0,0.0055636271886094334,0.0015874822012356916,-0.0006501526030649315
174.5,0.005560076209190178,0.001583931221816436,-0.0007512000769402658
175.0,0.005968458550767985,0.0019923135633942435,-0.00044102199019244084
175.5,0.0057381340361135486,0.0017619890487398067,-0.0007696771385720118
176.0,0.005680137813991027,0.0017039928266172856,-0.0009256139785100213
176.5,0.005830635034623274,0.0018544900472495318,-0.0008721908073233068
177.0,0.005514645025484348,0.0015385000381106058,-0.0012839358560024746
177.5,0.0060472014263600205,0.0020710564389862787,-0.0008453778587714121
178.0,0.005869373563359284,0.0018932285759855425,-0.0011150197129344615
178.5,0.006371390320194163,0.0023952453328204212,-0.000702212511451643
179.0,0.005934538966055876,0.0019583939786821346,-0.00122525649572197
179.5,0.006127501844746353,0.0021513568573726114,-0.0011150653564335543
180.0,0.006256532646070859,0.002280387658697117,-0.00106499171581217
180.5,0.005908978434966256,0.0019328334475925144,-0.0014873073178323197
181.0,0.006950497259361186,0.0029743522719874443,-0.0005159879039347815
181.5,0.007319662367896537,0.0033435173805227954,-0.00021211160380310437
182.0,0.007178381012663007,0.0032022360252892653,-0.0004134427664033826
182.5,0.00814579842195482,0.0041696534345810774,0.000499469427992854
183.0,0.0077488671136400145,0.0037727221262662727,5.385780324174052e-05
183.5,0.007941858458949515,0.003965713471575773,0.00020424642682703763
184.0,0.007702054316447821,0.003725909329074079,-7.185988783749847e-05
184.5,0.007897222039840323,0.003921077052466581,9.34975203071846e-05
185.0,0.00762630706628617,0.003650162078912428,-0.00020057790431406586
185.5,0.008412452520703675,0.004436307533329934,0.0005691802946855536
186.0,0.008274254943520203,0.004298109956146461,0.00042145623363502643
186.5,0.008581680978046883,0.004605535990673141,0.000726267607144651
187.0,0.008701491300258964,0.004725346312885222,0.0008503891701163078
187.5,0.008160083866065608,0.0041839388786918666,0.0003201958647602813
188.0,0.007924714709124519,0.003948569721750777,0.00010288382764482617
188.5,0.008291609150467958,0.004315464163094216,0.0004945821357687898
189.0,0.008443327018124544,0.004467182030750802,0.000677718883398618
189.5,0.008151754713210134,0.004175609725836392,0.00042401441566553184
190.0,0.008927916661129654,0.004951771673755912,0.0012442942432400812
190.5,0.008355787686334215,0.004379642698960473,0.0007223031585979495
191.0,0.008243122645653059,0.004266977658279317,0.000665536867653518
191.5,0.0085712841497597,0.004595139162385958,0.0010550719421054929
192.0,0.007710347400053144,0.0037342024126794018,0.00026067309297077724
192.5,0.008241121458028479,0.004264976470654737,0.000862817053404102
193.0,0.008349482805760745,0.004373337818387003,0.0010470288987237454
193.5,0.008329805970428162,0.0043536609830544205,0.0011073155446038856
194.0,0.008176427924904086,0.004200282937530344,0.0010376331027118105
194.5,0.007224695972179158,0.0032485509848054163,0.0001729377684936374
195.0,0.006967510163587725,0.002991365176213983,5.7312581916418165e-06
195.5,0.006946928338495508,0.0029707833511217665,7.766885048574469e-05
196.0,0.006350416462113493,0.002374271474739751,-0.00042418732177558656
196.5,0.006217431291598336,0.0022412863042245938,-0.0004607827293200287
197.0,0.006243075911444759,0.002266930924071017,-0.00033741214054251126
197.5,0.006271416622811124,0.002295271635437382,-0.00021040009299466093
198.0,0.006201141616116621,0.002224996628742879,-0.0001814397361550573
198.5,0.0060339804890267345,0.0020578355016529926,-0.00024917100387203536
199.0,0.005435584723849865,0.001459439736476123,-0.0007482980200628759
199.5,0.005037554642967058,0.0010614096555933159,-0.0010475602336160383
200.0,0.005280970878890035,0.001304825891516293,-0.0007061992573483161
200.5,0.004982222533635892,0.0010060775462621503,-0.0009081292446231277
201.0,0.005326735808786795,0.0013505908214130535,-0.00046820702742339775
201.5,0.005110165508904843,0.0011340205215311008,-0.000591039615305977
202.0,0.004706086000661214,0.0007299410132874723,-0.0009032924720238195
202.5,0.00475334663777743,0.0007772016504036883,-0.000766333556065492
203.0,0.0048521917390169055,0.0008760467516431636,-0.0005801130316133087
203.5,0.004785196965820118,0.0008090519784463759,-0.0005622267946795139
204.0,0.005043380967976343,0.0010672359806026014,-0.0002218049352403881
204.5,0.004873537290870939,0.0008973923034971973,-0.0003121801291691142
205.0,0.005061424668566748,0.0010852796811930063,-4.769782145683829e-05
205.5,0.004502278318434636,0.0005261333310608938,-0.0005332055694529565
206.0,0.004785361913685439,0.0008092169263116972,-0.00017950185320944373
206.5,0.004465813290543817,0.0004896683031700754,-0.0004314912789077041
207.0,0.004690014751704531,0.0007138697643307894,-0.00014281529601218516
207.5,0.004834140060115117,0.0008579950727413748,6.26936837702706e-05
208.0,0.004255556332060293,0.00027941134468655125,-0.0004575870075174799
208.5,0.004545324607739626,0.000569179620365884,-0.00011257096749937834
209.0,0.004632832045028052,0.0006566870576543106,2.7168186296750536e-05
209.5,0.00464669102477592,0.0006705460374021779,9.029461389380177e-05
210.0,0.004577555838121004,0.0006014108507472618,6.752562372958949e-05
210.5,0.004421256331650833,0.000445111344277091,-4.5235993036645884e-05
211.0,0.004647887302761702,0.00067174231538796,0.00022218614060021444
211.5,0.00433432781521149,0.0003581828278377483,-5.3239958792469636e-05
212.0,0.004453384917949672,0.0004772399305759305,0.00010138786276988823
212.5,0.004569656253063529,0.0005935112656897876,0.00025076733363553624
213.0,0.004301365077733523,0.0003252200903597815,1.3225665199240644e-05
213.5,0.004370059900316688,0.0003939149129429465,0.00011041813884023866
214.0,0.004161413141710623,0.00018526815433688153,-7.187421265491693e-05
214.5,0.004421739054332624,0.00044559406695888256,0.00021277240695172467
215.0,0.003976144987373742,0.0,-0.00021042500873639112
215.5,0.004202361099811544,0.00022621611243780256,3.63726899691903e-05
216.0,0.004773273505795648,0.0007971285184219063,0.0006261592773810873
216.5,0.004766566780577648,0.0007904217932039066,0.0006367250584091082
217.0,0.004978037423989752,0.0010018924366160106,0.0008639698075560546
217.5,0.005107571302463294,0.0011314263150895522,0.0010078797597570907
218.0,0.00496360442184739,0.0009874594344736485,0.0008769880025019019
218.5,0.005159233611304807,0.0011830886239310653,0.0010844848461488343
219.0,0.0051500126403161576,0.0011738676529424157,0.0010860136906489866
219.5,0.005164407130044313,0.0011882621426705714,0.0011101257457715318
220.0,0.005245803226359392,0.0012696582389856497,0.0012002885677154253
