wavelength,absorbance,absorbance_bk,residual_3gauss
117.0,0.22744669242920393,0.22947459236205756,-0.0006926359685578976
117.5,0.22668548663966984,0.22871338657252346,-0.00017433613037867723
118.0,0.22534751558161825,0.22737541551447188,0.0001401077032848197
118.5,0.22190300034802468,0.2239309002808783,-0.0012889666453823334
119.0,0.21983622321833857,0.2218641231511922,-0.0009893660203293964
119.5,0.2184893930884076,0.22051729302126122,0.0003668151787582785
120.0,0.2154161009037952,0.21744400083664883,0.0003166400627545862
120.5,0.21346094896694665,0.21548884889980027,0.0016859440281683513
121.0,0.2105138317914572,0.21254173172431082,0.002343595118621644
121.5,0.2059667986935044,0.20799469862635803,0.0016583288910376748
122.0,0.2005755299773532,0.20260342991020683,0.0003601891215020969
122.5,0.19671396446936645,0.19874186440222008,0.0007951125762355737
123.0,0.19156243548340224,0.19359033541625587,0.00011301664471938255
123.5,0.1864978634104864,0.18852576334334004,-0.0003420587712671397
124.0,0.18165675438665896,0.18368465431951259,-0.0004690007516783834
124.5,0.1762997070338814,0.17832760696673502,-0.0010451554522850348
125.0,0.17111607525418063,0.17314397518703425,-0.0014216860430327771
125.5,0.1662684758782734,0.16829637581112702,-0.0014790569134956744
126.0,0.16130523144833425,0.16333313138118788,-0.0017145411957199819
126.5,0.1581684510513779,0.16019635098423152,-0.00023403437303268215
127.0,0.1523287490175299,0.15435664895038353,-0.0016171586126823012
127.5,0.1487475810633767,0.15077548099623034,-0.0009546620494768343
128.0,0.1450155779675996,0.14704347790045322,-0.0007097168640262386
128.5,0.14226219316622607,0.1442900930990797,0.00019221523693593867
129.0,0.1392722542811589,0.14130015421401254,0.00048055300211433116
129.5,0.13666946112648198,0.1386973610593356,0.0007238531152918559
130.0,0.13475126160731,0.13677916154016362,0.0011655914581846505
130.5,0.13301845752597996,0.1350463574588336,0.001254819168005128
131.0,0.13196568248639243,0.13399358241924605,0.0014378276445175808
131.5,0.13142619517480875,0.13345409510766237,0.0015042497431753676
132.0,0.13160028106663335,0.13362818099948698,0.001616865466932571
132.5,0.13171206644070332,0.13373996637355695,0.0009698822953547459
133.0,0.1329638067503131,0.13499170668316673,0.0007447096048653346
133.5,0.13454905586809968,0.1365769558009533,0.0001245829341251503
134.0,0.13729693072883314,0.13932483066168677,-5.980505599534336e-05
134.5,0.140420499189506,0.14244839912235963,-0.0005807018611386772
135.0,0.14398243779990277,0.1460103377327564,-0.0013466394132727322
135.5,0.14851975441894835,0.15054765435180198,-0.001776995747565957
136.0,0.15366380094756207,0.1556917008804157,-0.0021816107980836275
136.5,0.15992877987499635,0.16195667980784997,-0.0019723079831300006
137.0,0.16669701185899463,0.16872491179184826,-0.001678099744043482
137.5,0.17390801074116505,0.17593591067401868,-0.0012570629715602244
138.0,0.18194279963904628,0.1839706995718999,-0.00021346735121594018
138.2,0.18554169590198832,0.18756959583484195,0.0005603262377372464
138.4,0.1886706708851592,0.19069857081801284,0.0008603194388795143
138.6,0.19175983996268248,0.1937877398955361,0.0011252014769506102
138.8,0.19465294957871632,0.19668084951156994,0.0012074401198944873
139.0,0.19745309383456783,0.19948099376742146,0.0012189669948004522
139.2,0.19999263642093232,0.20202053635378595,0.001001066744926532
139.4,0.20267557552757143,0.20470347546042506,0.000966707780288123
139.6,0.20542921991483848,0.2074571198476921,0.0010521829370718494
139.8,0.2082203043224611,0.21024820425531474,0.0012331883623200313
140.0,0.21044389964358187,0.2124717995764355,0.0009136962025944884
140.2,0.21266617440990637,0.21469407434276,0.0006686778022791662
140.4,0.2148776602472732,0.21690556018012683,0.0004973302392734247
140.6,0.21686787553172343,0.21889577546457706,0.00019766060468207058
140.8,0.21899793292184744,0.22102583285470107,0.00013905388646612282
141.0,0.22087934352472863,0.22290724345758225,-5.896259418761152e-05
141.2,0.22238490948723064,0.22441280942008426,-0.0005158662037071382
141.4,0.22453678070079175,0.22656468063364538,-0.0002021215810656396
141.6,0.22538585252744087,0.2274137524602945,-0.0010598216677366323
141.8,0.22693472600863357,0.2289626259414872,-0.0010797655034754938
142.0,0.2280440370180317,0.23007193695088532,-0.001395166103045159
142.2,0.22974895094003556,0.23177685087288918,-0.0009651916022418439
142.4,0.23077311851620652,0.23280101844906015,-0.0010610437951936724
142.6,0.23174239590202236,0.233770295834876,-0.0010522707786255192
142.8,0.232771120514632,0.23479902044748563,-0.0008205218746818455
143.0,0.23345939199652005,0.23548729192937368,-0.000762295253976808
143.2,0.23372471473127596,0.23575261466412958,-0.0009573215639299693
143.4,0.23414806356728177,0.2361759635001354,-0.0008225216430200466
143.6,0.23485566405393316,0.23688356398678678,-0.00023024674878235896
143.8,0.2354940754041747,0.23752197533702832,0.0004667871847022498
144.0,0.23547068850079192,0.23749858843364555,0.0006759838491782189
144.2,0.23500557784895243,0.23703347778180606,0.0006167085983714293
144.4,0.2341241939548654,0.23615209388771902,0.00031297496636650823
144.6,0.23343835738682409,0.2354662573196777,0.00037443718723692565
144.8,0.23308042725789116,0.2351083271907448,0.0009305617086561302
145.0,0.23138428197497396,0.2334121819078276,0.0003116157843049139
145.2,0.23064724738851045,0.23267514732136407,0.0008106085012791475
145.4,0.22875900010134556,0.2307869000341992,0.0003122121996857463
145.6,0.2279990915748474,0.23002699150770103,0.0010903100918886188
145.8,0.22613702450717696,0.2281649244400306,0.0009081016902298678
146.0,0.22434902822440975,0.22637692815726337,0.0009349128756128977
146.2,0.22191221476647324,0.22394011469932687,0.0004403923314268976
146.4,0.2201323715150348,0.22216027144788844,0.0007223501761519924
146.6,0.21771780598650897,0.2197457059193626,0.0004806543406766228
146.8,0.21596007607450493,0.21798797600735856,0.0009980178273450158
147.0,0.21288073555893544,0.21490863549178907,0.0002868064441450824
147.2,0.2098906715494173,0.21191857148227092,-0.0002515566242571876
147.4,0.20756482481605695,0.20959272474891058,-5.1798848265116604e-05
147.6,0.20444896992431097,0.2064768698571646,-0.0005779425541168337
147.8,0.2019444619780312,0.20397236191088483,-0.00043847906464247743
148.0,0.1991943225494421,0.20122222248229574,-0.0005002008687370607
148.2,0.1963471006747288,0.19837500060758242,-0.0006242566989509701
148.4,0.19360947047724145,0.19563737041009507,-0.0006134688000314636
148.6,0.1900747397985479,0.19210263973140151,-0.0013837389335422667
148.8,0.18738059525966824,0.18940849519252187,-0.0013062186935089426
149.0,0.18475757634726492,0.18678547628011855,-0.0011587525964584233
149.2,0.18270883899909987,0.1847367389319535,-0.0004460345770034013
149.4,0.18005912474047683,0.18208702467333046,-0.00035056297422755844
149.6,0.1777544771784053,0.17978237711125894,6.714664743912024e-05
149.8,0.17521143894514915,0.17723933887800278,0.00021782279056381526
150.0,0.17256351906201695,0.17459141899487057,0.00022996228517038753
150.5,0.1663327596157009,0.16836065954855453,0.00047699383882676694
151.0,0.1600337522170903,0.16206165214994392,0.0003816423784108458
151.5,0.15417604863544843,0.15620394856830205,0.0004495281764767822
152.0,0.14835160124383112,0.15037950117668475,0.0003039583034269988
152.5,0.14264693405320275,0.14467483398605638,9.408659380835682e-05
153.0,0.13732260968398483,0.13935050961683845,0.0001675265897857492
153.5,0.13224726739193687,0.1342751673247905,0.0004951920045823677
154.0,0.12644826130116735,0.12847616123402097,0.00021118632348376964
154.5,0.12043814204227044,0.12246604197512406,-7.200385007008481e-05
155.0,0.11431135341751424,0.11633925335036786,-0.00017752133495303746
155.5,0.10842842202975005,0.11045632196260367,0.00031101254163523606
156.0,0.10142023393579848,0.1034481338686521,4.7332323995286085e-05
156.5,0.09420954816406382,0.09623744809691745,-5.9163457364661e-05
157.0,0.08675874709896567,0.0887866470318193,-9.535819043059168e-05
157.5,0.07895999633534409,0.08098789626819772,-0.00025057218330180875
158.0,0.07134441241160772,0.07337231234446134,-0.00010083173259267664
158.5,0.06337406286420415,0.06540196279705777,-0.0003082311451002989
159.0,0.05625520146146675,0.05828310139432038,0.000202026116688174
159.5,0.048466951239237166,0.05049485117209079,-0.00021992119637640611
160.0,0.04153325944214811,0.04356115937500174,-0.00016778515463437838
160.5,0.03469098125700309,0.036718881189856716,-0.0005038798394451927
161.0,0.02904420395858621,0.03107210389143984,-0.00019982501611198397
161.5,0.023431483281305118,0.025459383214158745,-0.0004667409455505894
162.0,0.01935239340530153,0.021380293338155158,0.00017153974728137053
162.5,0.01469534397422322,0.016723243907076846,-0.0003954957242060658
163.0,0.011932605858975164,0.013960505791828792,0.0003266484483372325
163.5,0.009138720022155605,0.01116661995500923,0.0004515484126905601
164.0,0.007088731541786807,0.009116631474640435,0.0008053126219688244
164.5,0.005649061998058857,0.007676961930912484,0.0013127212945204508
165.0,0.0033861299007942303,0.005414029833647856,0.0006015521909953662
165.5,0.0023294789994429766,0.004357378932296603,0.000762115323739149
166.0,0.000972868474952428,0.0030007684078060546,0.0003455860780415183
166.5,0.0008847815594979424,0.0029126814923515687,0.0009726165476389925
167.0,0.00037689395041101134,0.0024047938832646378,0.001000702666322644
167.5,-0.00021480499329601008,0.0018130949395576165,0.0008048786539635287
168.0,-0.00050785385622207,0.0015200460766315565,0.0007999725331339981
168.5,-0.0007225600005305691,0.0013053399323230573,0.0007918305219021071
169.0,-0.0007342223544318881,0.0012936775784217385,0.0009257844463805656
169.5,-0.0018502881379417204,0.0001776117949119061,-8.970934358587659e-05
170.0,-0.0012771705852421726,0.0007507293476114538,0.0005509222779506001
170.5,-0.001062308685474904,0.0009655912473787226,0.0008090711206072668
171.0,-0.0013333298283775222,0.0006945701044761042,0.0005634609235825682
171.5,-0.0015255767942280562,0.0005023231386255703,0.0003831933407113936
172.0,-0.0013202851258052248,0.0007076148070484017,0.0005900382635595153
172.5,-0.0015512943914216027,0.00047660554143202374,0.0003520922781874883
173.0,-0.0011570814371118171,0.0008708184957418093,0.0007320298492920337
173.5,-0.001270331562588337,0.0007575683702652895,0.0005977461417186127
174.0,-0.001779857346290873,0.0002480425865627534,6.059654657520602e-05
174.5,-0.0017294148803761867,0.00029848505247743974,7.669656890200199e-05
175.0,-0.0015458410223831113,0.0004820589104705152,0.00021886986846064135
175.5,-0.0016150656186835494,0.00041283431417007705,0.00010069970190497299
176.0,-0.001298095191248817,0.0007298047416048094,0.0003605943957027801
176.5,-0.0011527330370910468,0.0008751668957625797,0.00044010719908457507
177.0,-0.0013408057163989385,0.000687094216454688,0.00017674432836706677
177.5,-0.00170578524519007,0.0003221146876635564,-0.00027362553461655697
178.0,-0.001438015056052942,0.0005898848768006845,-0.00010196672022473325
178.5,-0.001308427201037216,0.0007194727318164105,-7.976359647140813e-05
179.0,-0.0007170961055780801,0.0013108038272755464,0.00039245588728761046
179.5,-0.0007088762090551019,0.0013190237237985245,0.0002695127046151273
180.0,-0.0007232478306146911,0.0013046521022389355,0.000111760528711516
180.5,-0.0003667998012409808,0.0016611001316126457,0.0003126315436277063
181.0,3.991880471165024e-05,0.0020678187375652766,0.0005518110669031865
181.5,-8.31204026002433e-05,0.001944779530253383,0.00024974172189598434
182.0,0.00012205142227571376,0.00214995135512934,0.00026511903292316687
182.5,-0.0002830828925952397,0.0017448170402583868,-0.0003395780814210482
183.0,0.0007712354459280297,0.002799135378781656,0.0005066820787926925
183.5,0.0004291986065330855,0.002457098539386712,-5.03584560321642e-05
184.0,0.0009688912637607348,0.0029967911966143615,0.00026920393356244174
184.5,0.0011728151098469202,0.003200715042700547,0.0002499425783985686
185.0,0.0007285900581474372,0.0027564899910010638,-0.00041822340421320166
185.5,0.0006292229081793971,0.0026571228410330236,-0.0007397942083949491
186.0,0.0006205641639925269,0.002648464096846153,-0.0009662744648836967
186.5,0.00139816667427632,0.0034260666071299463,-0.0003993639122881359
187.0,0.0013839160698212347,0.003411816002674861,-0.0006143824764218153
187.5,0.0016110180426447695,0.003638917975498396,-0.0005753432291418243
188.0,0.0016928171422122252,0.0037207170750658517,-0.0006661967911313588
188.5,0.0020091431684589834,0.00403704310131261,-0.0005045491257597038
189.0,0.0029892619716940447,0.005017161904547671,0.00034122619513965446
189.5,0.003058846287803135,0.005086746220656762,0.0002988990392000122
190.0,0.0028211361051905188,0.004849036038044145,-2.6511317124820223e-05
190.5,0.0035693733784596684,0.005597273311313294,0.0006596514871991914
191.0,0.0030810280986955456,0.005108928031549172,0.00013586902710274826
191.5,0.0029292216910406736,0.0049571216238943,-2.4155932706268653e-05
192.0,0.0028904835671937083,0.004918383500047335,-4.375874872364176e-05
192.5,0.0032656788274940834,0.00529357876034771,0.0003776111032494523
193.0,0.003302363472828056,0.005330263405681683,0.00048675384471995927
193.5,0.0033735108481490216,0.0054014107810026486,0.0006554664188043778
194.0,0.0032122067431225613,0.005240106675976188,0.0006152693646204197
194.5,0.002729872627586283,0.004757772560439909,0.0002756718203096014
195.0,0.002597728485528747,0.004625628418382374,0.0003056845612859028
195.5,0.0022995306474149183,0.004327430580268545,0.00018661463295407531
196.0,0.002009076913758746,0.0040369768466123725,8.963183328229013e-05
196.5,0.001863051329792702,0.0038909512626463284,0.0001486772642711699
197.0,0.001322979653800332,0.0033508795866539582,-0.00017751715371746614
197.5,0.0011040510888503563,0.003131951021703983,-0.00017654469925203415
198.0,0.0007940136985968816,0.002821913631450508,-0.0002633698738311982
198.5,0.0007854070415513852,0.0028133069744050118,-4.804255358746264e-05
199.0,0.0004317408177611765,0.002459640750614803,-0.00017947283329864967
199.5,-0.00036958045198985033,0.0016583194808637762,-0.0007624675652518713
200.0,0.0001157403910817468,0.0021436403239353734,-6.470215365112679e-05
200.5,-0.0003842585471480904,0.001643641385705536,-0.00035985055835843554
201.0,-0.0006643185127220947,0.0013635814201315318,-0.0004440925716452265
201.5,-0.0006729348882520268,0.0013549650446015998,-0.00026708389527639034
202.0,-0.0009230139060512093,0.0011048860268024173,-0.00034261583866952673
202.5,-0.0009431019293245284,0.0010847980035290981,-0.00019985443473468788
203.0,-0.0009312303052770237,0.0010966696275766029,-3.720096990974023e-05
203.5,-0.001251299816383674,0.0007766001164699525,-0.00021869684142282963
204.0,-0.0017185775657606295,0.00030932236709299695,-0.0005595444159462347
204.5,-0.0011132772034706255,0.000914622729383001,0.00016028636059809602
205.0,-0.0018019514260835812,0.00022594850677004532,-0.00042536222482281497
205.5,-0.001369615662653774,0.0006582842701998526,9.901268336113482e-05
206.0,-0.0020278999328536265,0.0,-0.00047760472292475073
206.5,-0.0011813162172446404,0.0008465837156089861,0.0004409576974471544
207.0,-0.0011754967827874163,0.0008524031500662102,0.0005097976501482975
207.5,-0.0010545613633047935,0.000973338569548833,0.0006855495686382536
208.0,-0.0013030496406129524,0.0007248502922406741,0.00048443317396996174
208.5,-0.0015044994027039388,0.0005234005301496876,0.0003236592091774906
209.0,-0.0014374450798118911,0.0005904548530417354,0.0004254176773195993
209.5,-0.0015563866350547823,0.0004715132977988442,0.000335898530547818
210.0,-0.0014090331774185636,0.0006188667554350628,0.000508040281047684
210.5,-0.0015840777659912556,0.0004438221668623709,0.0003537498389580024
211.0,-0.001619778586864969,0.00040812134598865743,0.0003353181254319751
211.5,-0.0016992916452609889,0.0003286082875926376,0.0002700860220544774
212.0,-0.0016600972459298064,0.0003678026869238201,0.0003210180779390335
212.5,-0.0019334269784703432,9.44729543832833e-05,5.727695665062062e-05
213.0,-0.001949265151622853,7.863478123077338e-05,4.9224393111425914e-05
213.5,-0.0012337975644847402,0.0007941023683688863,0.0007709755103717037
214.0,-0.0016750369660054269,0.0003528629668481996,0.0003347769118785979
214.5,-0.0008793992329698573,0.0011485006998837692,0.0011344343183181636
215.0,-0.0011490670083815675,0.000878832924472059,0.0008679528397758105
215.5,-0.001670937993548722,0.0003569619393049045,0.00034859255532985605
216.0,-0.0013572419286986875,0.000670658004154939,0.0006642552615263478
216.5,-0.0010318063086349344,0.0009960936242186921,0.000991222267521235
217.0,-0.0016483740338565393,0.0003795258989970872,0.00037583998538361535
217.5,-0.001285405998984262,0.0007424939338693645,0.0007397202835451548
218.0,-0.0014728640404083415,0.0005550358924452849,0.0005529601684818586
218.5,-0.0014897760400408445,0.000538123892812782,0.0005365789983216225
219.0,-0.001134990384134622,0.0008929095487190046,0.0008917660402517451
219.5,-0.0013858994523572067,0.0006420004804964198,0.0006411587146909739
220.0,-0.001288940048753408,0.0007389598841002186,0.0007383436375382529
