wavelength,absorbance,absorbance_bk,residual_3gauss
117.0,0.9965412493732544,0.9960362991832323,0.0006142276678356984
117.5,0.977169490330472,0.9766645401404499,-0.0101580018339672
118.0,0.9782994592999207,0.9777945091098986,0.0006920974525373991
118.5,0.9675423512775329,0.9670374010875108,0.000734997572115148
119.0,0.9532208987220384,0.9527159485320164,-0.001752505465637877
119.5,0.946298864438604,0.945793914248582,0.004142074037298826
120.0,0.9302606873163904,0.9297557371263684,0.0018463841337015285
120.5,0.9175208766782531,0.917015926488231,0.0037124035005209333
121.0,0.9022334707661444,0.9017285205761223,0.003825615301965568
121.5,0.8886128772748612,0.8881079270848391,0.006325501391734489
122.0,0.8686189391170716,0.8681139889270495,0.0030902001507835397
122.5,0.850130627414802,0.84962567722478,0.0019097343541553125
123.0,0.8321853995101415,0.8316804493201194,0.001724856597342228
123.5,0.8118017643125565,0.8112968141225344,-0.000550929274848122
124.0,0.792035347184373,0.7915303969943509,-0.0019758550529503927
124.5,0.7719300062424346,0.7714250560524125,-0.003629299844832512
125.0,0.7535285549146944,0.7530236047246723,-0.0036015313986415
125.5,0.7341749317844394,0.7336699815944173,-0.004691886904057974
126.0,0.7158701132852366,0.7153651630952146,-0.0050530401437671735
126.5,0.6985884777550229,0.6980835275650008,-0.004874581488720775
127.0,0.6820111966088626,0.6815062464188405,-0.0046492642723342525
127.5,0.6674095460548009,0.6669045958647788,-0.003288950226951748
128.0,0.6541736959419641,0.653668745751942,-0.0015946236593397112
128.5,0.6409776296498056,0.6404726794597836,-0.0010897510262366517
129.0,0.63109307329934,0.6305881231093179,0.0012959526394906717
129.5,0.6216893254277536,0.6211843752377315,0.0025292872943569744
130.0,0.6138259135667014,0.6133209633766793,0.0034698133001587195
130.5,0.6088578973579304,0.6083529471679083,0.005279397752465331
131.0,0.60429625838926,0.603791308199238,0.005287470025577501
131.5,0.601781397501088,0.6012764473110659,0.004969939600708462
132.0,0.6018814977861491,0.601376547596127,0.004753427693613643
132.5,0.6040130343006792,0.6035080841106572,0.003941946478287828
133.0,0.6086180331521713,0.6081130829621493,0.002900441474341764
133.5,0.6157682136382248,0.6152632634482027,0.0016651068867183927
134.0,0.6248126378548747,0.6243076876648527,-0.0004031566310398471
134.5,0.6363236601220492,0.6358187099320272,-0.0026676270594201412
135.0,0.6506464178663354,0.6501414676763133,-0.004662036701374661
135.5,0.66777430848065,0.667269358290628,-0.006212082137698416
136.0,0.6873746064133046,0.6868696562232826,-0.007408286630909311
136.5,0.7102754592169668,0.7097705090269447,-0.00711921766188528
137.0,0.735360419562576,0.734855469372554,-0.006099097895552741
137.5,0.7629242269645515,0.7624192767745295,-0.003636231100592302
138.0,0.7916490997186064,0.7911441495285844,-0.000583046006757626
138.2,0.8022364016375018,0.8017314514474797,-0.0003121556386599389
138.4,0.8135524300510506,0.8130474798610285,0.0007104744950020558
138.6,0.8250584884175192,0.8245535382274971,0.0019806060494909072
138.8,0.8354425971803072,0.8349376469902852,0.002221230556504028
139.0,0.8462740893954404,0.8457691392054183,0.003037030483415193
139.2,0.8570216218789598,0.8565166716889377,0.003932249679844291
139.4,0.8667475143712883,0.8662425641812662,0.0040048862764485715
139.6,0.876895767377288,0.876390817187266,0.004734559311059483
139.8,0.8855084215411203,0.8850034713510982,0.004198712603997623
140.0,0.8950879102150127,0.8945829600249906,0.004934808248309941
140.2,0.9029652689482045,0.9024603187581824,0.004308374189157527
140.4,0.91052217177112,0.910017221581098,0.0037348765543205875
140.6,0.917071510467104,0.9165665602770819,0.002560133751489224
140.8,0.9234092374569104,0.9229042872668883,0.001611993814968793
141.0,0.9293523250330593,0.9288473748430373,0.0007381286282741595
141.2,0.9340859111337635,0.9335809609437414,-0.0008469838685840614
141.4,0.9391298375697316,0.9386248873797095,-0.001595682626800654
141.6,0.9437814701220941,0.9432765199320721,-0.0021844612001878927
141.8,0.9478173344470237,0.9473123842570016,-0.002812485287354116
142.0,0.9511050331588675,0.9506000829688455,-0.0035898237127822696
142.2,0.9543160255746375,0.9538110753846154,-0.0038248103230221764
142.4,0.957037604306321,0.956532654116299,-0.003912201551510286
142.6,0.9601725274796172,0.9596675772895952,-0.0029336697965326453
142.8,0.9614293635770211,0.9609244133869991,-0.003167574523253447
143.0,0.9630536183109752,0.9625486681209532,-0.0023579405818444643
143.2,0.9632114593080064,0.9627065091179844,-0.00233082685153585
143.4,0.9630060263910972,0.9625010762010752,-0.0019780963120028527
143.6,0.9626194926492954,0.9621145424592733,-0.0011154212459280055
143.8,0.9613898095739392,0.9608848593839171,-0.0004055891979678483
144.0,0.9592383099008807,0.9587333597108586,6.906502367654e-05
144.2,0.9563204341433263,0.9558154839533043,0.0004573683302208087
144.4,0.952025068773,0.9515201185829779,0.000138648275252784
144.6,0.9472248478568572,0.9467198976668352,-2.6945336867423286e-05
144.8,0.9427493925969171,0.9422444424068951,0.0007748391522817144
145.0,0.9365902030951347,0.9360852529051127,0.0005173079420293103
145.2,0.9310099989496323,0.9305050487596103,0.0014422448003815758
145.4,0.9242155922791256,0.9237106420891036,0.001732888542558264
145.6,0.9167051900336916,0.9162002398436695,0.0018613621698453375
145.8,0.9094636792895904,0.9089587290995683,0.0027841075316514807
146.0,0.9002756913072754,0.8997707411172533,0.002255121243732283
146.2,0.8914688609921789,0.8909639108021569,0.002569408219787239
146.4,0.8825194581892474,0.8820145079992253,0.0031688287044989716
146.6,0.8721065363205861,0.871601586130564,0.0026964834914430247
146.8,0.8610543866644541,0.860549436474432,0.001939424494860842
147.0,0.8505201431871043,0.8500151929970823,0.0020165341372201384
147.2,0.8384181576012992,0.8379132074112772,0.0008031914438217935
147.4,0.8266872330600232,0.8261822828700012,0.00019881112956832148
147.6,0.814124210580867,0.813619260390845,-0.001039252692491277
147.8,0.8019296957672718,0.8014247455772497,-0.0017496534179211043
148.0,0.7884504894394747,0.7879455392494527,-0.0036242889882815987
148.2,0.7765992748932928,0.7760943247032708,-0.0037882797732033957
148.4,0.7651342082795172,0.7646292580894951,-0.003520044511534093
148.6,0.7537940038151448,0.7532890536251228,-0.003115886544287516
148.8,0.7429888465283971,0.7424838963383751,-0.002198761771425972
149.0,0.731907487846803,0.731402537656781,-0.0016108772919196657
149.2,0.7212610696165509,0.7207561194265288,-0.0006695794788122988
149.4,0.710620903339823,0.7101159531498009,0.00017069095670030343
149.6,0.6999315065487287,0.6994265563587067,0.0008316745662048097
149.8,0.6893101150105558,0.6888051648205338,0.0014110140177922004
150.0,0.6785961742993856,0.6780912241093635,0.0017319198730352259
150.5,0.6522786161996177,0.6517736660095956,0.0022009699607820066
151.0,0.626320327305516,0.625815377115494,0.0018225027556577622
151.5,0.6001290696406412,0.5996241194506191,4.4335241249138235e-05
152.0,0.5757812249317419,0.5752762747417198,-0.0008867340555940295
152.5,0.5529666631600858,0.5524617129700637,-0.0010011508089524668
153.0,0.5314676353740693,0.5309626851840472,-0.00015865205892839906
153.5,0.5098145373198009,0.5093095871297788,0.0005692301137180111
154.0,0.4868751425177743,0.48637019232775225,0.000446267162118541
154.5,0.46315352056313014,0.4626485703731081,0.00032849634011483664
155.0,0.43838677624833405,0.437881826058312,0.0002233491106898855
155.5,0.41260320623818086,0.4120982560481588,0.00031832193740805037
156.0,0.38480320348751135,0.3842982532974893,-0.0003565649074987465
156.5,0.35617230315827986,0.3556673529682578,-0.0007214457445419709
157.0,0.32769750579639406,0.327192555606372,-2.3047441324752782e-05
157.5,0.2982720747182075,0.29776712452818543,0.0002891064033445634
158.0,0.26884905817930915,0.2683441079892871,0.0007445179950440473
158.5,0.2398060376112789,0.2393010874212568,0.0012507104921765932
159.0,0.21071810824242532,0.21021315805240323,0.0009026103301884025
159.5,0.18246867143047624,0.18196372124045415,0.00012816024158301964
160.0,0.15591359607501873,0.15540864588499664,-0.0006175114466867027
160.5,0.13075234219679682,0.13024739200677474,-0.001958158703005808
161.0,0.10873688062433248,0.10823193043431041,-0.0023732360009285497
161.5,0.08975489522857842,0.08924994503855635,-0.0021092533583506323
162.0,0.07296238575940125,0.07245743556937918,-0.002049859778554583
162.5,0.059086480077608285,0.058581529887586206,-0.001422413515202843
163.0,0.04758670503164036,0.04708175484161828,-0.0006508980635102565
163.5,0.03905372655507828,0.0385487763650562,0.0010258819827605736
164.0,0.03142739892846661,0.030922448738444533,0.0017546197422328436
164.5,0.02581273556878936,0.02530778537876728,0.0028666043331957575
165.0,0.02123270047341632,0.020727750283394242,0.0036157250003227906
165.5,0.017513380038370784,0.017008429848348706,0.004051698829514502
166.0,0.014643677069454911,0.014138726879432835,0.004370976417013159
166.5,0.01250420052219534,0.011999250332173264,0.004639938673070483
167.0,0.010662833457813017,0.01015788326779094,0.004587533800583698
167.5,0.009306493381404319,0.008801543191382242,0.004536368889206889
168.0,0.00816904657469242,0.007664096384670342,0.004331649555771451
168.5,0.006845431400579542,0.006340481210557464,0.003657464451917132
169.0,0.006112229645633494,0.005607279455611416,0.003360160054129777
169.5,0.0056382216709171176,0.00513327148089504,0.003161942958556007
170.0,0.005165783125449349,0.004660832935427271,0.002845274153942889
170.5,0.004680270697920824,0.004175320507898746,0.0024250096878988036
171.0,0.004666177546929444,0.0041612273569073665,0.002406960905914442
171.5,0.004559543332754824,0.004054593142732746,0.002242318195415585
172.0,0.0042896099526589584,0.0037846597626368813,0.0018709351112642483
172.5,0.004030499008259228,0.003525548818237151,0.001474283785831127
173.0,0.0038960347642793018,0.0033910845742572246,0.001171255120597645
173.5,0.0037358866665054935,0.0032309364764834163,0.0008150320315687552
174.0,0.0036316271055537616,0.0031266769155316844,0.0004896832991247383
174.5,0.0035108967523627167,0.0030059465623406396,0.00012471603204519547
175.0,0.003724425048216152,0.0032194748581940748,7.237220418057676e-05
175.5,0.0036358950903114303,0.003130944900289353,-0.0003023115722091238
176.0,0.0038585753945875145,0.0033536252045654373,-0.00038473585615431214
176.5,0.003698044603646635,0.003193094413624558,-0.0008679190860312845
177.0,0.0047426825682491645,0.004237732378227087,-0.0001619419744177215
177.5,0.00491558556366118,0.004410635373639103,-0.0003419897099778786
178.0,0.004921354588931357,0.004416404398909279,-0.0007015375646177826
178.5,0.005467293483746379,0.004962343293724301,-0.0005311395802122696
179.0,0.005742480789216855,0.005237530599194778,-0.0006393540669555279
179.5,0.005766754010872563,0.0052618038208504855,-0.0010037657121188094
180.0,0.006221912131075194,0.005716961941053116,-0.0009397973870419211
180.5,0.006492769161195867,0.00598781897117379,-0.0010596780535544114
181.0,0.006704632292097005,0.006199682102074927,-0.0012349925109388154
181.5,0.006971657671098648,0.00646670748107657,-0.001348359267202305
182.0,0.007560700331204396,0.007055750141182319,-0.0011296192747367595
182.5,0.007837166273328153,0.0073322160833060755,-0.001210026717658048
183.0,0.00772946649982983,0.007224516309807753,-0.001657841150178094
183.5,0.008410783924254478,0.007905833734232402,-0.0012966090699027873
184.0,0.008615156393469835,0.008110206203447759,-0.0013891306217107598
184.5,0.008849192312982786,0.00834424212296071,-0.0014257938160783471
185.0,0.009610576443465678,0.009105626253443602,-0.0009061175367090241
185.5,0.009762191487002034,0.009257241296979957,-0.0009646765594761471
186.0,0.010058836768160316,0.00955388657813824,-0.0008444261474297287
186.5,0.010427768823678832,0.009922818633656755,-0.0006162003397998297
187.0,0.01059184047913298,0.010086890289110903,-0.0005556063820649753
187.5,0.010451051223426709,0.009946101033404632,-0.0007615016352574694
188.0,0.010830590777084516,0.010325640587062439,-0.00040797036768816
188.5,0.011508626017622368,0.011003675827600291,0.00028345026270404534
189.0,0.012654173404583887,0.01214922321456181,0.0014816375172968868
189.5,0.012565515824283226,0.01206056563426115,0.001484302736382545
190.0,0.01287395596042077,0.012369005770398693,0.0019217553905417212
190.5,0.01245877958123978,0.011953829391217703,0.0016718846473921939
191.0,0.012303074333637344,0.011798124143615267,0.0017160035839584413
191.5,0.012453502596925225,0.011948552406903148,0.0020986539592719455
192.0,0.012159441349968284,0.011654491159946207,0.00206678370575053
192.5,0.01240482233891848,0.011899872148896403,0.002601629499954612
193.0,0.011876852728272666,0.01137190253825059,0.002387483566864766
193.5,0.011492075233449695,0.010987125043427618,0.0023378026174907737
194.0,0.01086198476638744,0.010357034576365363,0.002060874816752342
194.5,0.010037353789158154,0.009532403599136078,0.0016041958397343334
195.0,0.008942251895067043,0.008437301705044966,0.0008885384293816764
195.5,0.007985315833539052,0.007480365643516974,0.0003192706267116001
196.0,0.007473607385357435,0.006968657195335358,0.00020025912355537204
196.5,0.006450958071349276,0.005946007881327198,-0.0004277441234752169
197.0,0.005502308363226697,0.004997358173204619,-0.0009827250625488292
197.5,0.004695035526833213,0.004190085336811135,-0.001400046938322179
198.0,0.004220535230288454,0.003715585040266377,-0.0014908411892804933
198.5,0.0031043940368576063,0.002599443846835529,-0.0022318129910365897
199.0,0.0030562052143600646,0.0025512550243379875,-0.001915409120311316
199.5,0.0024868443580593883,0.001981894168037311,-0.0021325316025432523
200.0,0.0021001285053629734,0.0015951783153408962,-0.0021808732892089847
200.5,0.002025467268872033,0.001520517078849956,-0.0019322665419277216
201.0,0.0014059847484565167,0.0009010345584344394,-0.0022445658629273776
201.5,0.0011162868651636124,0.0006113366751415351,-0.002243889345313619
202.0,0.0010931525136948944,0.0005882023236728171,-0.0019939399991133573
202.5,0.0012135570325229926,0.0007086068425009154,-0.0016179978639334859
203.0,0.0014772530139797128,0.0009723028239576355,-0.0011163572733085755
203.5,0.0016340807400112179,0.0011291305499891405,-0.0007390363691034975
204.0,0.0012948081512647463,0.000789857961242669,-0.0008749583564949393
204.5,0.001327670438775156,0.0008227202487530787,-0.0006554338379127106
205.0,0.0012509848832139671,0.0007460346931918899,-0.0005615680709633398
205.5,0.001392802660384393,0.0008878524703623158,-0.00026463095419495197
206.0,0.0014767565911758067,0.0009718064011537295,-4.023034508290034e-05
206.5,0.0013037700294121024,0.0007988198393900251,-8.662316424747378e-05
207.0,0.001452804034153095,0.0009478538441310178,0.00017601314610990362
207.5,0.001290981581515284,0.0007860313914932066,0.0001156877830647508
208.0,0.0012979681537903442,0.0007930179637682669,0.00021296185448951778
208.5,0.001403495668868957,0.0008985454788468797,0.0003984588168610422
209.0,0.0017028133699888651,0.001197863179966788,0.0007683037362926161
209.5,0.0018076715024386955,0.0013027213124166184,0.0009350971869407807
210.0,0.0020663198026802847,0.0015613696126582075,0.0012479057573473395
210.5,0.001994875957838211,0.001489925767816134,0.0012236242326711965
211.0,0.0020298395088374794,0.0015248893188154022,0.0012994848083871153
211.5,0.001785221231862036,0.0012802710418399585,0.0010901832318877906
212.0,0.001881911834327816,0.0013769616443057389,0.0012172455561733938
212.5,0.001945300389233318,0.0014403501992112408,0.0013066457698827734
213.0,0.0009472848963893356,0.00044233470636725837,0.00033081653042829444
213.5,0.0014011837488121,0.0008962335587900228,0.0008035616193348619
214.0,0.0013460692131763033,0.000841119023154226,0.0007643910759216115
214.5,0.001170543767148262,0.0006655935771261848,0.0006022997088673715
215.0,0.0008484248228754758,0.00034347463285339856,0.0002914543834026448
215.5,0.0011105723234872485,0.0006056221334651712,0.0005630244527298338
216.0,0.0008514277981948162,0.00034647760817273893,0.0003117238151628465
216.5,0.0009962995424715672,0.0004913493524494899,0.0004630991738243274
217.0,0.0011089837534055192,0.0006040335633834419,0.0005811542536194721
217.5,0.0013046184079862598,0.0007996682179641825,0.0007812067015658653
218.0,0.0011002877927180647,0.0005953376026959874,0.0005804955299973711
218.5,0.0007970148891205601,0.00029206469909848285,0.00028017627003948777
219.0,0.0005049501900220773,0.0,-9.487616433226347e-06
219.5,0.0009429822066510067,0.00043803201662892944,0.00043048817610880324
220.0,0.0012167567063573346,0.0007118065163352574,0.0007058302408239512
