wavelength,absorbance,absorbance_bk,residual_3gauss
117.0,0.6584265756441301,0.6598111064015376,-0.003801199957054968
117.5,0.6572053465471228,0.6585898773045303,-0.002136473341008749
118.0,0.6552298237817832,0.6566143545391907,-0.00013165911212353887
118.5,0.6491656664072677,0.6505501971646752,-0.0011471923048848032
119.0,0.6445018549195354,0.6458863856769429,0.0002729039783115894
119.5,0.63812297077998,0.6395075015373876,0.0009731904982785977
120.0,0.6318646442231329,0.6332491749805405,0.002742142563656347
120.5,0.6241501350399915,0.625534665797399,0.0039485989499781216
121.0,0.6134817238703464,0.6148662546277539,0.003033002840515664
121.5,0.6036210307475781,0.6050055615049856,0.003687549965029735
122.0,0.5916969899821821,0.5930815207395896,0.002963974407891423
122.5,0.5799673205798985,0.581351851337306,0.003034816426921494
123.0,0.5665002258662856,0.5678847566236931,0.0018749156593182992
123.5,0.5514734851548141,0.5528580159122216,-0.0004396924499902033
124.0,0.5374978588938949,0.5388823896513024,-0.001408534666581307
124.5,0.5228348231418422,0.5242193538992497,-0.002889069393850252
125.0,0.5092115464598087,0.5105960772172162,-0.00328172083395184
125.5,0.4947387162251171,0.4961232469825246,-0.004611931170830863
126.0,0.48181314630262817,0.48319767706003564,-0.0046272537365202315
126.5,0.46919299270621734,0.4705775234636248,-0.004721611294650541
127.0,0.4573657590970508,0.45875028985445826,-0.004566486063028508
127.5,0.44715940555270006,0.4485439363101075,-0.0034986766423156235
128.0,0.43743878049359336,0.4388233112510008,-0.0028223537022381007
128.5,0.4299413004589956,0.43132583121640306,-0.0009714481196532732
129.0,0.42341696640566606,0.4248014971630735,0.0006327481696756787
129.5,0.4181297181250423,0.41951424888244976,0.0020857866039239448
130.0,0.4142109941442216,0.41559552490162904,0.0033569367168498343
130.5,0.41146012808460786,0.4128446588420153,0.00409333718299093
131.0,0.41068660122976336,0.4120711319871708,0.004966392201173064
131.5,0.4108830561663956,0.41226758692380305,0.004849239246274228
132.0,0.41321710049733046,0.4146016312547379,0.0048132091976503255
132.5,0.41710729509401534,0.4184918258514228,0.004208536634510762
133.0,0.4228280092581791,0.42421254001558656,0.0032738395311179835
133.5,0.43064566580758934,0.4320301965649968,0.0022767058954104025
134.0,0.44009357401891536,0.4414781047763228,0.0007923835258064615
134.5,0.4512579778950431,0.4526425086524506,-0.0010070098319366338
135.0,0.4645319859893745,0.465916516746782,-0.002596298895560012
135.5,0.47958186696575994,0.4809663977231674,-0.004129799305793769
136.0,0.4964379891135682,0.49782251987097564,-0.005350498883901433
136.5,0.5149892085002729,0.5163737392576804,-0.0060972081996159
137.0,0.5354222824067043,0.5368068131641118,-0.005868200939663115
137.5,0.5579674342147405,0.559351964972148,-0.004080262242063815
138.0,0.5811008058115329,0.5824853365689404,-0.0018723939608287221
138.2,0.5894950674845771,0.5908795982419847,-0.0018044345514327542
138.4,0.5988976781116253,0.6002822088690328,-0.0006627722139254111
138.6,0.6076542365833468,0.6090387673407544,-7.4515119237617e-05
138.8,0.6164723517384189,0.6178568824958264,0.0006954290410164932
139.0,0.6252314612458529,0.6266159920032605,0.0015540635074071663
139.2,0.6337080276516377,0.6350925584090452,0.0023053867248227222
139.4,0.642025995481058,0.6434105262384655,0.0031007348219299624
139.6,0.6496388132950616,0.6510233440524691,0.0034206867204719105
139.8,0.6573420267330853,0.6587265574904928,0.004087538455779471
140.0,0.6635685267318545,0.664953057489262,0.0035604314691102257
140.2,0.6700965273004842,0.6714810580578917,0.003643209842574935
140.4,0.6757951437293984,0.6771796744868059,0.0032298779613695316
140.6,0.68053093731304,0.6819154680704476,0.0022110253045719563
140.8,0.6857035985042741,0.6870881292616816,0.0020093909153734435
141.0,0.6894159708974772,0.6908005016548847,0.0007497705901123863
141.2,0.6932080500829619,0.6945925808403695,-7.098521635384714e-06
141.4,0.6962935996116713,0.6976781303690788,-0.0010280330119363246
141.6,0.6990515666096684,0.7004360973670759,-0.001916094806123314
141.8,0.701773112441979,0.7031576431993866,-0.002363663190694698
142.0,0.7038656367977806,0.7052501675551881,-0.0029485082436694343
142.2,0.70636951524305,0.7077540460004575,-0.0026171449597820473
142.4,0.7079280264857961,0.7093125572432036,-0.0027149911652609715
142.6,0.7089289460348385,0.710313476792246,-0.0028448518836146075
142.8,0.7098905168399089,0.7112750475973164,-0.0024810189107444813
143.0,0.7102567168805752,0.7116412476379828,-0.0021740649830707115
143.2,0.7103478526317438,0.7117323833891513,-0.0016003029689337644
143.4,0.7100759996693956,0.7114605304268031,-0.0008463881865937717
143.6,0.7087084766738676,0.7100930074312751,-0.0006458769702298861
143.8,0.7069528357169016,0.7083373664743091,-0.0002942579915946597
144.0,0.7049851822505268,0.7063697130079343,0.0003793576673606358
144.2,0.701914111682488,0.7032986424398955,0.00047617513744413476
144.4,0.698643261206735,0.7000277919641426,0.0008902822799452537
144.6,0.6947117423795712,0.6960962731369787,0.001149110081668403
144.8,0.6900880586882926,0.6914725894457001,0.0012073916185624256
145.0,0.6851638619401996,0.6865483926976071,0.0014409738027301167
145.2,0.6797670529113946,0.6811515836688021,0.001659987670383778
145.4,0.6738948932978596,0.6752794240552671,0.0018420444901885435
145.6,0.6679421093486784,0.6693266401060859,0.002360438214260463
145.8,0.6610344639549728,0.6624189947123803,0.002317831079015731
146.0,0.6539200433175575,0.655304574074965,0.0024376683889208994
146.2,0.6463958420628516,0.6477803728202591,0.0024909061242348596
146.4,0.6380111456157321,0.6393956763731397,0.001999549799518663
146.6,0.6300286922249617,0.6314132229823692,0.0021979864190120324
146.8,0.6212774772304356,0.6226620079878431,0.001885971387732055
147.0,0.6117557481047282,0.6131402788621357,0.001031817987922512
147.2,0.6025024560874208,0.6038869868448283,0.0006440541147257894
147.4,0.592444318570167,0.5938288493275745,-0.0003813009041170323
147.6,0.5823471160289282,0.5837316467863357,-0.001309217153016795
147.8,0.5726095167748377,0.5739940475322453,-0.0017716011224451211
148.0,0.5623223437894835,0.5637068745468911,-0.0027077965487694033
148.2,0.55224995150579,0.5536344822631976,-0.003382973397916378
148.4,0.5426018869191782,0.5439864176765857,-0.003616232949038678
148.6,0.5339389281412473,0.5353234588986548,-0.002874338368106022
148.8,0.5249345811414848,0.5263191118988924,-0.0025099926635824277
149.0,0.5161449857589857,0.5175295165163932,-0.001991715684042772
149.2,0.5075735948919433,0.5089581256493508,-0.0013389590591708078
149.4,0.49904945287618974,0.5004339836335973,-0.0007436359079159294
149.6,0.4906877433988339,0.4920722741562414,-0.0001093977824905279
149.8,0.48262998692865133,0.4840145176860588,0.0006887183887805404
150.0,0.47348734157037303,0.4748718723277805,0.0002477246448547854
150.5,0.4536092372667689,0.45499376802417635,0.001379155859883796
151.0,0.43361009188290767,0.43499462264031513,0.00125050364187268
151.5,0.4143584683165572,0.41574299907396467,0.0007242665393668579
152.0,0.3960552462380269,0.39743977699543437,9.401621870874788e-05
152.5,0.37918083404858993,0.3805653648059974,1.9077949206303124e-05
153.0,0.3638824424281444,0.36526697318555185,0.0008922099875534606
153.5,0.3485422935903659,0.3499268243477734,0.0013826069110506323
154.0,0.33275269150049486,0.3341372222579023,0.0013822758837415683
154.5,0.31653653326785847,0.31792106402526593,0.0011969632530073882
155.0,0.29949662531278887,0.30088115607019633,0.000667785459878778
155.5,0.28176446602254396,0.2831489967799514,9.688444975469723e-05
156.0,0.26323145640513634,0.2646159871625438,-0.0005377278595375956
156.5,0.24394594956211327,0.24533048031952076,-0.0011932505314982966
157.0,0.22478098824595305,0.22616551900336054,-0.0010936840104763534
157.5,0.20586845603301848,0.20725298679042597,-0.0002866036746953793
158.0,0.18630437967219632,0.1876889104296038,7.832822517409022e-05
158.5,0.1670352863637533,0.1684198171211608,0.0006570196935174188
159.0,0.1469660397033777,0.1483505704607852,4.2775190675442554e-05
159.5,0.12796552666406927,0.12935005742147676,-0.00020387016766287847
160.0,0.10947858196143892,0.11086311271884641,-0.0009212548293776185
160.5,0.09209564477358152,0.09348017553098902,-0.0017590120693030398
161.0,0.07694311270888503,0.07832764346629252,-0.0017750841753934737
161.5,0.06373301570745493,0.06511754646486242,-0.001379242455625665
162.0,0.05185485632759887,0.053239387085006355,-0.0012401247923841119
162.5,0.04203846300817085,0.04342299376557834,-0.0006262362256222592
163.0,0.034000909364159664,0.03538544012156715,0.0002332470782349938
163.5,0.02714703904374192,0.02853156980114941,0.0008387236845426305
164.0,0.02217415302171745,0.023558683779124935,0.0020133552353653536
164.5,0.0180713310915762,0.019455861848983687,0.0028908729406641846
165.0,0.01478840878171869,0.01617293953912618,0.003573987788185384
165.5,0.012403619087214397,0.013788149844621884,0.004293082716323756
166.0,0.010257066265362116,0.011641597022769604,0.004532719725060342
166.5,0.009046151220966844,0.010430681978374332,0.005122174937440253
167.0,0.007722805843001896,0.009107336600409383,0.00512973643811472
167.5,0.006797837328584616,0.008182368085992105,0.005165795232627004
168.0,0.005585382738929368,0.006969913496336856,0.004627378322583149
168.5,0.0049948897715187054,0.006379420528926193,0.004491166676529505
169.0,0.004581470512937838,0.005966001270345325,0.004365494250240064
169.5,0.0042649356653576,0.005649466422765087,0.004211336395242965
170.0,0.0035861411906237192,0.004970671948031207,0.0036006861249003688
170.5,0.0038269902953180185,0.0052115210527255065,0.0038384957066992854
171.0,0.003450735208116392,0.00483526596552388,0.003404724575769859
171.5,0.0030313158234455285,0.004415846580853016,0.002885178314442626
172.0,0.0030712000234526388,0.004455730780860126,0.0027905895731278035
172.5,0.0026580505580549945,0.0040425813154624825,0.002214277871523074
173.0,0.0026992713355633406,0.004083802092970828,0.0020674685015125995
173.5,0.002410619563538226,0.0037951503209457138,0.0015684913177273331
174.0,0.002420980628451341,0.0038055113858588285,0.0013479917439696235
174.5,0.0020188740679244767,0.0034034048253319643,0.0006957551860555205
175.0,0.001563781672929083,0.002948312430336571,-2.7735825129986125e-05
175.5,0.0023705929399477827,0.0037551236973552703,0.0004933065114202185
176.0,0.002042642539622245,0.0034271732970297323,-0.00013687296863672217
176.5,0.0018207828768120615,0.003205313634219549,-0.0006764204944946675
177.0,0.002339159843784592,0.0037236906011920796,-0.0004900435031795032
177.5,0.0021469902580413215,0.003531521015448809,-0.0010271975281291356
178.0,0.002407378960446958,0.0037919097178544456,-0.001123247227729044
178.5,0.002576370937522935,0.003960901694930422,-0.0013204031190498094
179.0,0.002965884877764365,0.0043504156351718525,-0.001304785606419878
179.5,0.0034648019624445086,0.004849332719851996,-0.0011853412043903713
180.0,0.0036517898036336712,0.005036320561041158,-0.001381030173199311
180.5,0.004191520178704785,0.005576050936112273,-0.0012246262886995698
181.0,0.003985959569351546,0.005370490326759033,-0.0018114492200523406
181.5,0.004453037322679713,0.0058375680800872,-0.0017207242029092058
182.0,0.004964074293975695,0.006348605051383183,-0.00157818562345949
182.5,0.005178902589534446,0.006563433346941934,-0.0017209933082263443
183.0,0.0053491281944087555,0.006733658951816243,-0.0018945090713374238
183.5,0.005471628357227821,0.006856159114635309,-0.00209884090407708
184.0,0.00618868143939999,0.007573212196807478,-0.0016887562826888615
184.5,0.006772682362237794,0.008157213119645281,-0.0013890105831738265
185.0,0.0071463876225829875,0.008530918379990475,-0.0012741457115017334
185.5,0.007463827511324945,0.008848358268732433,-0.0011876203719357343
186.0,0.007959299237170689,0.009343829994578176,-0.0008928573301705805
186.5,0.008307773744978066,0.009692304502385554,-0.0007128739682194397
187.0,0.008632738564746174,0.010017269322153662,-0.0005224729339032112
187.5,0.009007279260214957,0.010391810017622445,-0.0002471895324119948
188.0,0.009136742215739648,0.010521272973147136,-0.00018065243822444794
188.5,0.009906450704321891,0.011290981461729379,0.0005631147775739063
189.0,0.010135613412280113,0.0115201441696876,0.0008035909041292973
189.5,0.010449502882316185,0.011834033639723672,0.0011659308666812501
190.0,0.010633994647504879,0.012018525404912366,0.0014355069077353934
190.5,0.010861440623456647,0.012245971380864135,0.00178379069173705
191.0,0.010782779266006768,0.012167310023414256,0.0018604786302868718
191.5,0.010647167021177493,0.01203169777858498,0.0019131445896477736
192.0,0.010411820628898684,0.011796351386306171,0.0018971090336595952
192.5,0.010630839750002266,0.012015370507409754,0.0023642934354736207
193.0,0.010507576388706008,0.011892107146113495,0.002515625685862048
193.5,0.010140064705568648,0.011524595462976135,0.0024465092626641954
194.0,0.009813639812918409,0.011198170570325896,0.0024394838615882444
194.5,0.009119298317420078,0.010503829074827565,0.0020826293257964496
195.0,0.008432430725595417,0.009816961483002904,0.0017483420537016316
195.5,0.007520758647388214,0.0089052894047957,0.001201315900322855
196.0,0.006820476325793085,0.008205007083200572,0.0008747262215408995
196.5,0.005896360823561668,0.007280891580969156,0.0003303805769223475
197.0,0.004998262523175121,0.006382793280582609,-0.00018475298526500396
197.5,0.004118046522134267,0.005502577279541754,-0.0006815701125011137
198.0,0.003370024127402359,0.004754554884809846,-0.0010483681206143155
198.5,0.002739458061286826,0.004123988818694314,-0.0013023145452482135
199.0,0.0023402854863848253,0.003724816243792313,-0.0013317024437768704
199.5,0.0014466819121167745,0.002831212669524262,-0.001864369540267508
200.0,0.0013627293565061263,0.002747260113913614,-0.001598017874344652
200.5,0.0004591124363764592,0.0018436431937839466,-0.0021635102015719354
201.0,0.0002493785550255465,0.001633909312433034,-0.0020486067932033404
201.5,0.00011960666685339838,0.001504137424260886,-0.0018682978811445919
202.0,-0.0003966111912642885,0.000987919566143199,-0.0020898272061898445
202.5,-0.0003666715044118697,0.0010178592529956178,-0.0017812021578595067
203.0,-0.000898737707520527,0.00048579304988696055,-0.002050983733178812
203.5,-0.0007886680569897011,0.0005958627004177864,-0.0016952284443712644
204.0,-0.0009608122436768336,0.00042371851373065395,-0.001638300968368121
204.5,-0.0008454742363782599,0.0005390565210292277,-0.0013103545227311874
205.0,-0.0009638297912383655,0.000420700966169122,-0.0012322669123866095
205.5,-0.0009374622621703411,0.00044706849523714644,-0.0010251954163175434
206.0,-0.0010867669728404363,0.00029776378456705123,-0.0010090003436712843
206.5,-0.0006170700931298927,0.0007674606642775948,-0.0003883828136587152
207.0,-0.0009167585570057952,0.0004677722004016924,-0.0005510329558619461
207.5,-0.0011839861116896904,0.00020054464571779714,-0.0006943533323787272
208.0,-0.0009752546486675107,0.00040927610873997685,-0.0003740564974517005
208.5,-0.0012475166504705873,0.00013701410693690028,-0.000546282347127006
209.0,-0.0010204498701604748,0.00036408088724701275,-0.00022988624638580586
209.5,-0.0012117483447725951,0.00017278241263489241,-0.0003417419544741127
210.0,-0.0009008626836374658,0.0004836680737700218,3.950774622406961e-05
210.5,-0.0009436064150000223,0.0004409243424074652,5.8835929776069695e-05
211.0,-0.0011883773485340187,0.00019615340887346885,-0.00013139708221040423
211.5,-0.0012494581866775362,0.00013507257072995133,-0.00014475011942398656
212.0,-0.0012184821957488428,0.00016604856165864474,-7.217125446577503e-05
212.5,-0.0012577070956132435,0.00012682366179424405,-7.527485568106291e-05
213.0,-0.001222759797051001,0.0001617709603564865,-9.088352449175915e-06
213.5,-0.0013845307574074876,0.0,-0.00014394761309828
214.0,-0.0011779061850719745,0.00020662457233551305,8.57707013540781e-05
214.5,-0.000979915527026355,0.00040461523038113245,0.0003035022415204439
215.0,-0.0008989493070671662,0.00048558145034032136,0.0004012783365675476
215.5,-0.0012205857526796907,0.0001639450047277969,9.390106455533995e-05
216.0,-0.0009165738396671616,0.00046795691774032596,0.00040996228453301064
216.5,-0.0009888736486459982,0.0003956571087614894,0.00034780563382459705
217.0,-0.0008535520194212678,0.0005309787379862198,0.0004916334130497217
217.5,-0.0008096143917144414,0.0005749163656930461,0.0005426773904343121
218.0,-0.0007042335343429959,0.0006802972230644916,0.0006539727548545775
218.5,-0.0007605018588705187,0.0006240288985369689,0.0006026084643683066
219.0,-0.0006860902025229991,0.0006984405548844884,0.000681071058886994
219.5,-0.0005485651949214377,0.0008359655624860499,0.0008219297858083333
220.0,-0.00022565710687656775,0.0011588736505309199,0.0011475711127550095
