wavelength,absorbance,absorbance_bk,residual_3gauss
117.0,0.651486525364638,0.6570422562452036,-0.015092950812619188
117.5,0.6485060900545968,0.6540618209351624,-0.01179057436996822
118.0,0.6436393796791999,0.6491951105597655,-0.00956717659675721
118.5,0.6404958730569771,0.6460516039375427,-0.004863058055708747
119.0,0.6376240357399636,0.6431797666205292,0.0008192174304776367
119.5,0.6326925986464205,0.6382483295269861,0.005096346262178142
120.0,0.6239909528138757,0.6295466836944413,0.006204848461965451
120.5,0.6164069286566564,0.621962659537222,0.0089789198190251
121.0,0.6068287805866844,0.61238451146725,0.010252371275016547
121.5,0.5968084922656524,0.602364223146218,0.01152174628571112
122.0,0.5841812437487072,0.5897369746292728,0.010565432014708276
122.5,0.5707300511410703,0.5762857820216359,0.009107750813092008
123.0,0.5570993394480157,0.5626550703285813,0.0077317727294922145
123.5,0.5424530958457883,0.5480088267263539,0.005536484446122869
124.0,0.5270295272709966,0.5325852581515622,0.002690239416595408
124.5,0.5119812970442992,0.5175370279248648,0.000269582547434144
125.0,0.4966086765500975,0.5021644074306632,-0.0025091731862675326
125.5,0.48170062339651526,0.4872563542770809,-0.004950538335035282
126.0,0.4678872334229864,0.47344296430355204,-0.006529061020173088
126.5,0.4554191314233056,0.46097486230387125,-0.007111469530376835
127.0,0.4424653423256469,0.44802107320621254,-0.008660044331161909
127.5,0.433055120692092,0.43861085157265767,-0.007291561658818169
128.0,0.4238715215490545,0.42942725242962015,-0.006483832748233387
128.5,0.4159854200387724,0.4215411509193381,-0.005340938566223752
129.0,0.4098155135610805,0.41537124444164614,-0.003631450413646098
129.5,0.40497118706377855,0.4105269179443442,-0.0019426148382590824
130.0,0.40216606144247113,0.4077217923230368,0.00023740401703453706
130.5,0.4006932682835223,0.40624899916408796,0.002000283189805996
131.0,0.40103218976061333,0.406587920641179,0.00363096904506377
131.5,0.4024120060569833,0.40796773693754895,0.00417895164814347
132.0,0.40562606364339887,0.41118179452396453,0.004281136023923826
132.5,0.41181110619477823,0.4173668370753439,0.00494999804880919
133.0,0.41938433010226134,0.424940060982827,0.004519555709492029
133.5,0.4288500826713136,0.43440581355187924,0.0034604875830399617
134.0,0.44095478742410527,0.4465105183046709,0.002542470630854776
134.5,0.45503457871908887,0.4605903095996545,0.0011877147714356995
135.0,0.47106287122254953,0.4766186021031152,-0.00047754159790663886
135.5,0.4892580294423251,0.49481376032289076,-0.0020137929181315295
136.0,0.5088892345535235,0.5144449654340891,-0.003863460890457082
136.5,0.530530398471008,0.5360861293515736,-0.0051008115398326614
137.0,0.5543378283955757,0.5598935592761413,-0.005160881572309317
137.5,0.5799455291986316,0.5855012600791972,-0.003953361731298344
138.0,0.6063865427730065,0.6119422736535721,-0.0019527241242405236
138.5,0.6328697448414105,0.638425475721976,0.0005652732667240645
139.0,0.6586863797931729,0.6642421106737385,0.0034155379908377137
139.5,0.6819424085440233,0.6874981394245889,0.005220750315522271
140.0,0.7022644241359226,0.7078201550164882,0.006102038789260522
140.5,0.7181911015039742,0.7237468323845399,0.005055839247220972
141.0,0.7300507508578643,0.7356064817384299,0.0028181034871241906
141.5,0.7378509651599762,0.7434066960405418,-0.0002576474319410105
142.0,0.7425283370007609,0.7480840678813265,-0.0029600733513934774
142.5,0.7447667323000918,0.7503224631806574,-0.004408859744628235
143.0,0.7447193529714291,0.7502750838519947,-0.004337373173875836
143.5,0.7415042012361611,0.7470599321167267,-0.0035996289350795907
144.0,0.7349233827671149,0.7404791136476805,-0.0024513846957116003
144.5,0.7245635719454857,0.7301193028260513,-0.0014483648935335047
145.0,0.7108793071066657,0.7164350379872313,-0.0003602613886573014
145.5,0.6939059519444285,0.6994616828249941,0.0005461433296236606
146.0,0.6740599775656608,0.6796157084462264,0.001312453733270602
146.5,0.6513796284454432,0.6569353593260088,0.001536213708010159
147.0,0.6263318413353289,0.6318875722158945,0.001187173021941379
147.5,0.5988570443552561,0.6044127752358217,-0.0003350732940863299
148.0,0.5711118683943154,0.576667599274881,-0.0014409832694509683
148.5,0.5446425444531239,0.5501982753336895,-0.001155008458232798
149.0,0.5201273113722377,0.5256830422528033,0.0006547100469832534
149.5,0.4963871398034661,0.5019428706840318,0.002319017501604237
150.0,0.47349773614939167,0.4790534670299573,0.003513233013020589
150.5,0.4515367702717012,0.45709250115226685,0.004035612923352305
151.0,0.4304199228041608,0.43597565368472646,0.0036677983651825508
151.5,0.40997275006025047,0.4155284809408161,0.0022596238546625513
152.0,0.39074805420293174,0.3963037850834974,0.0005442860448639508
152.5,0.37335778735982056,0.3789135182403862,-0.0005489144699865056
153.0,0.3570268136985832,0.36258254457914885,-0.0013762099063324706
153.5,0.3413395853986631,0.34689531627922876,-0.0018808704327908377
154.0,0.32545260893189726,0.3310083398124629,-0.002435903062191047
154.5,0.3089712827553552,0.31452701363592084,-0.003022135673874604
155.0,0.2921940441837128,0.29774977506427847,-0.0030313489666801696
155.5,0.2745144543724067,0.28007018525297234,-0.002897577664674633
156.0,0.25633585431454703,0.2618915851951127,-0.0021979380667672133
156.5,0.23766809173159953,0.24322382261216519,-0.001052336122793457
157.0,0.2192444384801135,0.22480016936067915,0.0010143008278191423
157.5,0.2001522139199144,0.20570794480048005,0.0027366196087502126
158.0,0.1809587396773872,0.18651447055795284,0.004276230103840262
158.5,0.16170872900857555,0.16726445988914118,0.005261917466848676
159.0,0.14250147814928607,0.1480572090298517,0.005405576604370688
159.5,0.12350991793158635,0.129065648812152,0.004551829775506153
160.0,0.1053866994575044,0.11094243033807004,0.0031041814803336037
160.5,0.0885190946829759,0.09407482556354155,0.0012889834806815437
161.0,0.0730355169695375,0.07859124785010314,-0.0008389556289392225
161.5,0.05929075165521278,0.06484648253577843,-0.0029199284092595035
162.0,0.04761219967923674,0.05316793055980238,-0.004557121562940761
162.5,0.03746524818607167,0.043020979066637315,-0.006167863291052997
163.0,0.02917651020184051,0.03473224108240615,-0.0072772564492962
163.5,0.022259907423007107,0.02781563830357275,-0.008207464126609134
164.0,0.017028739081637614,0.022584469962203257,-0.008478392313265526
164.5,0.012885712683230896,0.01844144356379654,-0.008527290211720155
165.0,0.009475544877153866,0.015031275757719509,-0.008562649997965768
165.5,0.0068508349232632975,0.01240656580382894,-0.008402037556916488
166.0,0.004777655048398494,0.010333385928964137,-0.008167937686500168
166.5,0.003346471883602004,0.008902202764167647,-0.007676593847004427
167.0,0.0019502495337127969,0.00750598041427844,-0.007458559552481309
167.5,0.001190943323545069,0.006746674204110712,-0.006850236325357983
168.0,0.000569911820069801,0.006125642700635444,-0.006301245217890102
168.5,-0.00029972218686293093,0.005256008693702712,-0.006159864260383522
169.0,-0.0005909623620128064,0.004964768518552837,-0.005568896646512702
169.5,-0.000842384959711272,0.004713345920854371,-0.00504335888463271
170.0,-0.0011846025595201592,0.004371128321045484,-0.004695479517245879
170.5,-0.0014547444940720539,0.004100986386493589,-0.004347998861449814
171.0,-0.0018482306177976604,0.0037075002627679826,-0.004185016784223437
171.5,-0.0020225962658241415,0.0035331346147415015,-0.0038551075299065453
172.0,-0.002259945301331116,0.003295785579234527,-0.0036332382722099065
172.5,-0.0025698594048134053,0.0029858714757522377,-0.0035232824624140224
173.0,-0.002817452159994417,0.002738278720571226,-0.003385784721832993
173.5,-0.002872656934498453,0.00268307394606719,-0.0030870402695548837
174.0,-0.002933009760336576,0.002622721120229067,-0.0028217294552132137
174.5,-0.003138670981593681,0.002417059898971962,-0.0027278350046218737
175.0,-0.003277259578437518,0.002278471302128125,-0.0025914031672383286
175.5,-0.0032389104776520744,0.0023168204029135686,-0.002301548821723602
176.0,-0.003370705213357326,0.002185025667208317,-0.0022048463188609354
176.5,-0.003119966600169978,0.002435764280395665,-0.001748589241684465
177.0,-0.0033162537493360345,0.0022394771312296085,-0.0017627487080564617
177.5,-0.0031136327823780446,0.0024420980981875984,-0.001402199547754177
178.0,-0.002563941330034131,0.002991789550531512,-0.0007199272082042346
178.5,-0.0025934876612789515,0.0029622432192866915,-0.0006436520503350098
179.0,-0.0024459433636419567,0.0031097875169236863,-0.00041862718225841623
179.5,-0.0022495030540700383,0.0033062278264956047,-0.00017468233639310327
180.0,-0.0020131072372682095,0.0035426236432974335,7.768891955793264e-05
180.5,-0.0018135128876579528,0.00374221799290769,0.00026041050970696585
181.0,-0.001662552907343097,0.0038931779732225462,0.0003607265819076154
181.5,-0.0017009338091787164,0.003854797071386927,0.00023756806415133318
182.0,-0.0012527723547080035,0.0043029585258576395,0.0005671722649174711
182.5,-0.001260203956111834,0.0042955269244538095,0.0004086115140648503
183.0,-0.0006923849455017663,0.004863345935063877,0.0007948972838077249
183.5,-0.0008222851470132379,0.004733445733552405,0.0004562526481533243
184.0,-0.0006824662938504874,0.004873264586715156,0.00036434863428931943
184.5,-0.000413878147235886,0.005141852733329757,0.0003834664840710461
185.0,-3.950260231331449e-05,0.005516228278252329,0.0004967529885816085
185.5,6.987036487041465e-05,0.005625601245436058,0.000340286574304861
186.0,0.0001019262752802746,0.005657657155845918,0.00010915128326379267
186.5,0.0003368332197929913,0.005892564100358634,9.119240954795407e-05
187.0,0.0005674497567463609,0.006123180637312004,8.694432365969479e-05
187.5,0.0004080183423115884,0.005963749222877231,-0.00028196913092440844
188.0,0.00019813432617651924,0.005753865206742162,-0.0006691546621255887
188.5,0.00034414201048988573,0.005899872891055528,-0.0006623215081002047
189.0,0.000838339441548529,0.006394070322114172,-0.0002643080433218743
189.5,0.00043820025231939967,0.0059939311328850425,-0.0007140415277886621
190.0,0.0009338397624128703,0.006489570642978513,-0.0002191940664106641
190.5,0.000745622317886151,0.006301353198451794,-0.00035863214333233667
191.0,0.0009877923127233855,0.006543523193289029,-1.8775983636701993e-05
191.5,0.0008901093584504428,0.006445840239016086,2.8108776240100622e-05
192.0,0.00036339777484978736,0.00591912865541543,-0.00031040948747296324
192.5,0.0003873739596960103,0.005943104840261653,-5.892419275439591e-05
193.0,0.0002792383113347817,0.005834969191900425,9.46129905973923e-05
193.5,0.00014485961678630397,0.005700590497351947,0.00025030964427562915
194.0,4.87731096475568e-05,0.0056045039902132,0.00046657176981949964
194.5,-0.00022839708045870367,0.005327333800106939,0.000517762571954578
195.0,-0.0002834072879500852,0.005272323592615558,0.0008009533900931393
195.5,-0.0007942357388428441,0.0047614951417227986,0.0006322773407745324
196.0,-0.0014216909234268632,0.00413403995713878,0.0003454840601837543
196.5,-0.001852116032055944,0.003703614848509699,0.0002493622790142383
197.0,-0.002499497865083439,0.003056233015482204,-7.427981336188263e-05
197.5,-0.002714050007730941,0.002841680872834702,2.085444422331075e-05
198.0,-0.003175460500225089,0.002380270380340554,-0.00014767981219129724
198.5,-0.003431746021428816,0.002123984859136827,-0.00012993594506700845
199.0,-0.003885142861305799,0.001670588019259844,-0.00032950498134468346
199.5,-0.004098910440017259,0.0014568204405483844,-0.00031037712691418784
200.0,-0.004185553580124584,0.0013701773004410594,-0.00018523611421533324
200.5,-0.004624877579058476,0.000930853301507167,-0.0004335949455465636
201.0,-0.004701024831702281,0.0008547060488633624,-0.0003389168119611054
201.5,-0.004757156878568413,0.0007985740019972303,-0.00024338080041187574
202.0,-0.0046954735637523256,0.0008602573168133175,-4.798062800569409e-05
202.5,-0.005139599568913705,0.0004161313116519379,-0.0003749840784908836
203.0,-0.005107852601317752,0.00044787827924789095,-0.00024126565761536933
203.5,-0.005225027220027125,0.0003307036605385179,-0.000270145448649956
204.0,-0.005283920441100698,0.00027181043946494527,-0.00025295996183197136
204.5,-0.005154368688982718,0.0004013621915829246,-5.813473279233576e-05
205.0,-0.005275410724056756,0.00028032015650888715,-0.0001233738963935697
205.5,-0.005428619063317349,0.00012711181724829428,-0.00022901013558515983
206.0,-0.005325999722890692,0.00022973115767495073,-8.591589166078036e-05
206.5,-0.005555730880565643,0.0,-0.00028124757131536317
207.0,-0.005362521031668942,0.00019320984889670094,-5.880446338204397e-05
207.5,-0.005326015898316286,0.00022971498224935716,2.5672915074527567e-06
208.0,-0.005368353624900871,0.0001873772556647722,-1.8574840445520133e-05
208.5,-0.005406492736480837,0.00014923814408480604,-3.859023939012897e-05
209.0,-0.005422854425119651,0.0001328764554459922,-3.938879092180717e-05
209.5,-0.005472890154290565,8.28407262750781e-05,-7.598933443739861e-05
210.0,-0.005334803913408524,0.0002209269671571189,7.376730335142289e-05
210.5,-0.0053337412124939325,0.0002219896680717105,8.503825358402648e-05
211.0,-0.005027135729392308,0.0005285951511733349,0.00040064037330623056
211.5,-0.004977509218132082,0.0005782216624335614,0.00045825807097124723
212.0,-0.0050185250624274055,0.0005372058181382375,0.00042439671868081403
212.5,-0.00481976529693492,0.0007359655836307226,0.0006296117965962308
213.0,-0.004956282131255408,0.0005994487493102352,0.0004989627434202763
213.5,-0.005093143574993632,0.0004625873055720108,0.00036747195238671216
214.0,-0.0051437392085257674,0.0004119916720398756,0.00032182292473485253
214.5,-0.005122632759399131,0.0004330981211665124,0.0003475109882442038
215.0,-0.005084389883355488,0.0004713409972101554,0.0003900182540363315
215.5,-0.004936317040026971,0.0006194138405386717,0.0005420769939344141
216.0,-0.004854836790979671,0.000700894089585972,0.0006272961799998316
216.5,-0.004932091759072529,0.0006236391214931138,0.0005535590114622123
217.0,-0.00497151092119614,0.0005842199593695026,0.000517457814869515
217.5,-0.004877423531646592,0.0006783073489190512,0.0006146810712871585
218.0,-0.004818053575759537,0.0007376773048061057,0.0006770197151675793
218.5,-0.005097156437784752,0.00045857444278089073,0.00040073105861920366
219.0,-0.005001204891629398,0.0005545259889362447,0.0004993532641272568
219.5,-0.0048211701869522346,0.0007345606936134084,0.0006819246195196666
220.0,-0.004874150562078263,0.0006815803184873799,0.0006313553052477374
