wavelength,absorbance,absorbance_bk,residual_3gauss
117.0,0.4429797043829608,0.4487291044740741,-0.0026294060550095533
117.5,0.4407208363924633,0.4464702364835766,-0.002124507794660613
118.0,0.4403488638755516,0.4460982639666649,0.0008509943295508249
118.5,0.43474423982551286,0.44049363991662616,-0.0008384554799925059
119.0,0.4315188250563055,0.4372682251474188,0.0004000913226836489
119.5,0.4276586453498378,0.4334080454409511,0.0015307970024424078
120.0,0.4224017595054482,0.4281511595965615,0.001766844567613557
120.5,0.4166276117853512,0.4223770118764645,0.001959712880556186
121.0,0.41048364003798216,0.41623304012909546,0.0022256886782485164
121.5,0.4040549656195698,0.40980436571068307,0.002615440089273502
122.0,0.3957839942504656,0.4015333943415789,0.0015334805423701803
122.5,0.3872055645805152,0.3929549646716285,0.000473161294658464
123.0,0.3791795739551356,0.3849289740462489,0.0002491256411185083
123.5,0.3705619678315116,0.3763113679226249,-0.00033188264198497075
124.0,0.36181149897271714,0.36756089906383044,-0.0008644414702028147
124.5,0.35318168481553486,0.35893108490664816,-0.0011526625864941575
125.0,0.3433900806001635,0.3491394806912768,-0.002541060365573944
125.5,0.3356196917129285,0.3413690918040418,-0.001913234623742155
126.0,0.32690911734418665,0.33265851743529995,-0.0023017527509285873
126.5,0.3184271246086646,0.3241765246997779,-0.0026135064461628166
127.0,0.31076861289610247,0.31651801298721577,-0.0023335553837455225
127.5,0.3038958540866746,0.3096452541777879,-0.0015835429010754298
128.0,0.2969559061861278,0.3027053062772411,-0.0013037567913842252
128.5,0.2910546660367778,0.2968040661278911,-0.0004783416902046089
129.0,0.2858756534755506,0.2916250535666639,0.0004844537899759138
129.5,0.281144328857629,0.2868937289487423,0.0012178160943089322
130.0,0.27672262702649875,0.28247202711761205,0.001492386305956661
130.5,0.27350026669340516,0.27924966678451846,0.002109320583967955
131.0,0.270850153235381,0.2765995533264943,0.0023576987516426007
131.5,0.2690995244859769,0.2748489245770902,0.0024879059985929985
132.0,0.2683246315834846,0.2740740316745979,0.0025087398868767208
132.5,0.26836447085151927,0.27411387094263256,0.002203702763334925
133.0,0.2691679378687514,0.27491733795986467,0.0014807789217753387
133.5,0.2711377410345516,0.2768871411256649,0.0007189470486087535
134.0,0.2743963138615676,0.2801457139526809,3.656743788399419e-05
134.5,0.2781900607377392,0.2839394608288525,-0.0013021309769454814
135.0,0.284080460659564,0.2898298607506773,-0.0016940549077071876
135.5,0.29066708747274483,0.29641648756385813,-0.0024728004771591983
136.0,0.29897603143395257,0.30472543152506587,-0.002519383886300963
136.5,0.3084807758871069,0.31423017597822017,-0.002241197051372601
137.0,0.31918403269857937,0.32493343278969267,-0.0014907701185252198
137.5,0.3308248436422844,0.3365742437333977,-0.0003600973284604847
138.0,0.3429414019365053,0.3486908020276186,0.0008798910289300466
138.2,0.34582788819355426,0.35157728828466756,-0.0006404392502727951
138.4,0.3508263345938949,0.3565757346850082,-5.9928197185699084e-05
138.6,0.355582659388489,0.3613320594796023,0.0002818122789959854
138.8,0.35991643923235966,0.36566583932347296,0.00021911165588711645
139.0,0.3644755499439677,0.370224950035081,0.00041482852775176493
139.2,0.3690823261025988,0.3748317261937121,0.000706454397652212
139.4,0.3740575922577218,0.3798069923488351,0.0014300865051890543
139.6,0.37838747176422416,0.38413687185533746,0.0015871759224416193
139.8,0.38221870705795824,0.38796810714907154,0.0013397849698354447
140.0,0.38577935144493414,0.39152875153604744,0.0009312142803417078
140.2,0.38942813196737475,0.39517753205848805,0.0007352993471614333
140.4,0.3931707358608462,0.3989201359519595,0.0007726293571688747
140.6,0.3962407598735981,0.4019901599647114,0.0002914278846107843
140.8,0.39906690129859057,0.40481630138970387,-0.0002653253864586813
141.0,0.40224139258254016,0.40799079267365346,-0.0002915297146062201
141.2,0.40487345921063217,0.41062285930174547,-0.0006645750840340026
141.4,0.407478093396163,0.4132274934872763,-0.0008566378300228772
141.6,0.4098935348747186,0.4156429349658319,-0.0010172684352895422
141.8,0.41251560136931376,0.41826500146042705,-0.0007391285459849017
142.0,0.4138348623776324,0.4195842624687457,-0.001520883158381281
142.2,0.4167640255593716,0.4225134256504849,-0.0004398782874197593
142.4,0.41741800405773616,0.42316740414884946,-0.001372135359079374
142.6,0.4192446906734108,0.4249940907645241,-0.0008616359710310606
142.8,0.42029183059231146,0.42604123068342475,-0.0008535048698540826
143.0,0.4207792018332205,0.4265286019243338,-0.0011218815152769235
143.2,0.4222155285913789,0.4279649286824922,-0.00015305457942832446
143.4,0.4229910179100943,0.4287404180012076,0.00044703153854852573
143.6,0.42231118358566094,0.42806058367677424,-0.00011343741435404509
143.8,0.42254755186712584,0.42829695195823914,0.0005385277835140423
144.0,0.42140022079113526,0.42714962088224856,0.00010325296412838636
144.2,0.4209447676849703,0.4266941677760836,0.000655288559091971
144.4,0.4192141921476692,0.4249635922387825,0.0002253402630684187
144.6,0.41783243236704853,0.42358183245816183,0.000433780731303568
144.8,0.41618132963463833,0.42193072972575163,0.000657617660110188
145.0,0.41402639326180896,0.41977579335292226,0.0006562709171489267
145.2,0.4116839827982544,0.4174333828893677,0.0007387760537247989
145.4,0.4094742767570005,0.4152236768481138,0.0012167837914252022
145.6,0.4068733356151844,0.4126227357062977,0.0015566635861605227
145.8,0.40340883312821896,0.40915823321933226,0.001275285574273699
146.0,0.3995693517402376,0.4053187518313509,0.0008493768706960836
146.2,0.39637109620204886,0.40212049629316216,0.0012823064238147164
146.4,0.39265320433255135,0.39840260442366465,0.0013994773488049672
146.6,0.3880109964908318,0.3937603965819451,0.0007816681710475781
146.8,0.38319985451254446,0.38894925460365776,0.00016901346293868302
147.0,0.3797529644782244,0.3855023645693377,0.0010788578244599334
147.2,0.37415012181726726,0.37989952190838056,-2.531886378204229e-05
147.4,0.3693812592485925,0.3751306593397058,-0.00017024515567914955
147.6,0.3645173143751986,0.3702667144663119,-0.0003018548202209925
147.8,0.3586208567372974,0.3643702568284107,-0.0013745179735881186
148.0,0.354087460397247,0.3598368604883603,-0.001009521756225762
148.2,0.3485940018685522,0.3543434019596655,-0.0015466221811151204
148.4,0.34340662173150904,0.34915602182262234,-0.0017359304125510455
148.6,0.33864573581881785,0.34439513590993115,-0.0014727493442616701
148.8,0.33367307770116467,0.33942247779227797,-0.001410380631498953
149.0,0.32854731093855016,0.33429671102966346,-0.0015043657057837168
149.2,0.32389786893839473,0.329647269029508,-0.001138505008105417
149.4,0.319442573277928,0.3251919733690413,-0.0006071067104314043
149.6,0.3149592847991103,0.3207086848902236,-0.0001432127590928478
149.8,0.3102082851697516,0.3159576852608649,3.89333691808158e-06
150.0,0.3048620511183322,0.3106114512094455,-0.0005014428689520956
150.5,0.2947610392888327,0.300510439379946,0.0012099718747379251
151.0,0.28333219436883667,0.28908159445994996,0.001139400075018726
151.5,0.2717580621277458,0.2775074622188591,0.0004732748570889789
152.0,0.2610768874558081,0.2668262875469214,0.0003143569685256642
152.5,0.2507810956463764,0.2565304957374897,0.00027192031224781976
153.0,0.2410022529041146,0.2467516529952279,0.0006333881460947599
153.5,0.23087760612873337,0.23662700621984667,0.0007135778889301447
154.0,0.22047687727878823,0.22622627736990153,0.0007618152570874892
154.5,0.20955064589019412,0.21530004598130742,0.0006902025547056434
155.0,0.19799580237031245,0.20374520246142575,0.0005206119548033794
155.5,0.18563400437234784,0.19138340446346114,0.00014829704670349386
156.0,0.17261418375762283,0.17836358384873613,-0.000265255069437087
156.5,0.15877322752704315,0.16452262761815645,-0.0009351308125242486
157.0,0.14468644676156314,0.15043584685267644,-0.001399591997184202
157.5,0.13170378810298394,0.13745318819409724,-0.0004750189207207989
158.0,0.11831328959989824,0.12406268969101154,0.00012113877963322583
158.5,0.10428847367448064,0.11003787376559394,-6.55631225714437e-05
159.0,0.090634659511602,0.0963840596027153,-0.00026239268160610507
159.5,0.0783772744540718,0.0841266745451851,0.0003360003179682658
160.0,0.0652378579534641,0.0709872580445774,-0.0007416651814691338
160.5,0.05411492566253986,0.059864325753653164,-0.0007512993144726116
161.0,0.044639599246498816,0.05038899933761212,-0.00017096768715463284
161.5,0.035727317321718154,0.04147671741283146,-0.0001467588733689712
162.0,0.02797022387043695,0.03371962396155025,-0.00010202571783565068
162.5,0.021730711834481744,0.027480111925595047,0.0003512286316102488
163.0,0.016078846577272318,0.02182824666838562,0.0003425251289095911
163.5,0.012613906090929857,0.01836330618204316,0.0015559335789216422
164.0,0.008537349219685627,0.014286749310798931,0.001294246670091084
164.5,0.005701487190867389,0.011450887281980692,0.0015193981658289217
165.0,0.0032375776222450868,0.008986977713358392,0.0014734361670378868
165.5,0.001553958826857298,0.0073033589179706026,0.0016710157936932549
166.0,5.411074319461974e-05,0.005803510834307924,0.0016134168613524576
166.5,-0.0007166539852128549,0.005032746105900449,0.0019327244076862175
167.0,-0.0018141721706910312,0.0039352279204222735,0.0016476728942040946
167.5,-0.0029633865287279648,0.0027860135623853396,0.001095583561222373
168.0,-0.004046007780656178,0.0017033923104571268,0.00044537027866313537
168.5,-0.003884094222501228,0.0018653058686120762,0.0009151234003733816
169.0,-0.004603767106315801,0.0011456329847975037,0.0004098143736448462
169.5,-0.00417396117945145,0.0015754389116618547,0.0009840352615944042
170.0,-0.004143384599907857,0.0016060154912054475,0.001106467257850197
170.5,-0.004291606850026436,0.0014577932410868681,0.0010100778597481664
171.0,-0.005193889469162123,0.000555510621951181,0.00012839121932019
171.5,-0.0051130412362698965,0.0006363588548434079,0.00020453994762359982
172.0,-0.005749400091113304,0.0,-0.00045799358607016795
172.5,-0.005370257750249664,0.0003791423408636401,-0.00012424031398019912
173.0,-0.004978881606475086,0.000770518484638218,0.00020366074767962376
173.5,-0.004958289761977305,0.0007911103291359991,0.0001430078806770041
174.0,-0.005404189485435436,0.0003452106056778684,-0.0004021626528016858
174.5,-0.005168543713623029,0.0005808563774902754,-0.0002844635636581062
175.0,-0.004402033378820377,0.0013473667122929278,0.00034451858248277993
175.5,-0.004276744409389684,0.00147265568172362,0.00031164515893195087
176.0,-0.004202486568746788,0.0015469135223665168,0.00020599667283036581
176.5,-0.004332901498696551,0.0014164985924167532,-0.00012715707315406628
177.0,-0.004207363483456421,0.0015420366076568832,-0.0002281867996436972
177.5,-0.004145467411293276,0.0016039326798200281,-0.0004175252907121078
178.0,-0.003976825111271426,0.0017725749798418785,-0.0005254004912605601
178.5,-0.0032940059153134214,0.002455394175799883,-0.00014471571619053799
179.0,-0.00279267888529728,0.002956721205816024,2.886511083440707e-05
179.5,-0.00247546752444506,0.0032739325666682442,-6.884667649527214e-06
180.0,-0.002595205277675764,0.0031541948134375403,-0.000503963181816764
180.5,-0.0018763975168625924,0.003873002574250712,-0.00018556274389439726
181.0,-0.001207420439093523,0.004541979652019782,6.176127769386142e-05
181.5,-0.0009615616315204739,0.004787838459592831,-0.00013293108350887102
182.0,-0.0011137058383288599,0.0046356942527844445,-0.0007416437533649782
182.5,-0.0005013148210108602,0.005248085270102444,-0.000598432063047512
183.0,-0.0004077912482541737,0.005341608842859131,-0.0009827892460971214
183.5,0.0006257443848120371,0.006375144475925342,-0.00043146158396156504
184.0,0.0006858647871904693,0.006435264878303774,-0.000853091312302455
184.5,0.0014378921510374196,0.0071872922421507245,-0.000577229521302655
185.0,0.002511384543279893,0.008260784634393198,3.1066871663478976e-05
185.5,0.00342185975533974,0.009171259846453044,0.0004928630724048005
186.0,0.003708237692679382,0.009457637783792687,0.0003526825818497715
186.5,0.0035052273797273963,0.009254627470840701,-0.00024921960568474386
187.0,0.0035347750714376583,0.009284175162550963,-0.0005855271273891294
187.5,0.004744387716162523,0.010493787807275827,0.00029634202643765047
188.0,0.005167688617403519,0.010917088708516823,0.00043467471760997266
188.5,0.005290264745338165,0.011039664836451468,0.00031919996966837255
189.0,0.005914452742128234,0.011663852833241537,0.0007557750514348809
189.5,0.0060474417411972735,0.011796841832310577,0.0007544018264939792
190.0,0.006272558205014636,0.012021958296127941,0.000900441545596941
190.5,0.005997707145062485,0.01174710723617579,0.0006030048879347195
191.0,0.005799060076542022,0.011548460167655327,0.0004386094068236455
191.5,0.005714964224088474,0.011464364315201779,0.0004450799784170411
192.0,0.005854161691161828,0.011603561782275132,0.000729781278658935
192.5,0.006089180072258081,0.011838580163371385,0.0011630432961739993
193.0,0.005616812763976905,0.01136621285509021,0.000938696903210608
193.5,0.005654739327446192,0.011404139418559497,0.0012707678968236248
194.0,0.004756151209357869,0.010505551300471174,0.0007081922583514044
194.5,0.004049600627461921,0.009799000718575226,0.00037476737308006665
195.0,0.0030682970571455307,0.008817697148258835,-0.00020143978743847324
195.5,0.0013314047646396804,0.0070808048557529845,-0.0015066777314795285
196.0,0.001119849222471718,0.0068692493135850225,-0.00126558465185785
196.5,0.0006758172716060001,0.006425217362719305,-0.001241570548976033
197.0,0.00024296642668683455,0.0059923665178001385,-0.0011964952971424475
197.5,-0.0008776290565484282,0.004871771034564877,-0.0018346181088001491
198.0,-0.0007242444253645182,0.005025155665748786,-0.0011992700932940848
198.5,-0.001697934662108742,0.0040514654290045625,-0.0016962036813691315
199.0,-0.0024350468189400245,0.00331435327217328,-0.0019660385470565435
199.5,-0.0024808606984570367,0.0032685393926562677,-0.0015578511886607015
200.0,-0.0019742428885794958,0.0037751572025338086,-0.0006137935040932373
200.5,-0.002798585360856875,0.0029508147302564295,-0.001020011337466301
201.0,-0.0025921213546619614,0.003157278736451343,-0.0004169549823275498
201.5,-0.0028089740095322184,0.002940426081581086,-0.00026043593377180364
202.0,-0.0028823694233587865,0.002867030667754518,1.513995145571755e-05
202.5,-0.003231630630240577,0.0025177694608727276,-1.0251831536080194e-05
203.0,-0.002835811857401192,0.0029135882337121125,0.0006840727302396023
203.5,-0.0024908784423006004,0.003258521648812704,0.0013022814148413923
204.0,-0.0027781585376673414,0.002971241553445963,0.001263524962516544
204.5,-0.0029525361498921854,0.002796863941221119,0.0013136925856694869
205.0,-0.0028166106442579514,0.002932789446855353,0.0016512004160781214
205.5,-0.00363246416115142,0.0021169359299618843,0.0010151730041154437
206.0,-0.0029301276781749062,0.002819272412938398,0.0018769284610504946
206.5,-0.0031031930325340846,0.00264620705857922,0.0018443210034793627
207.0,-0.003029537724389809,0.0027198623667234953,0.00204097489375824
207.5,-0.0028871208493700825,0.002862279241743222,0.002290451989469812
208.0,-0.0028726353726631878,0.0028767647184501166,0.002397568012856381
208.5,-0.0025684116911277688,0.0031809883999855356,0.0027814627024935774
209.0,-0.0028241028128810903,0.002925297278232214,0.002593893440565793
209.5,-0.0030984941352020425,0.002650905955911262,0.002377409143942599
210.0,-0.0025932065710561674,0.003156193520057137,0.002931635317422996
210.5,-0.0031545808082549423,0.002594819282858362,0.0024113820464317583
211.0,-0.002586152048235513,0.0031632480428777916,0.0030141650871895
211.5,-0.003063547665783336,0.0026858524253299686,0.002565307089832919
212.0,-0.00312524525883286,0.0026241548322804443,0.0025271809582408274
212.5,-0.003119630053930944,0.0026297700371823605,0.0025521558700420718
213.0,-0.0029631889126347727,0.0027862111784785317,0.0027244082324700734
213.5,-0.0029777525109448005,0.002771647580168504,0.0027226855662059917
214.0,-0.003133628018818609,0.0026157720722946956,0.0025771806051621228
214.5,-0.0024600953131897734,0.003289304777923531,0.0032590422484379024
215.0,-0.0024304772064633008,0.0033189228846500036,0.0032953126076792722
215.5,-0.0023409197164412678,0.0034084803746720366,0.0033901539030778646
216.0,-0.0020438355233511727,0.0037055645677621317,0.0036914118920887196
216.5,-0.002295318232229228,0.0034540818588840766,0.0034432080881803095
217.0,-0.002179471431959673,0.0035699286591536314,0.0035616166941275025
217.5,-0.0020542445658113077,0.0036951555253019967,0.0036888341851019956
218.0,-0.0020641961713603343,0.00368520391975297,0.0036804209620506893
218.5,-0.0022687303076699456,0.003480669783443359,0.003477069258392913
219.0,-0.0022488433215623817,0.0035005567695509227,0.0034978601663015157
219.5,-0.0022037326410691183,0.003545667450044186,0.003543658125032781
220.0,-0.0022492011108792894,0.003500198980234015,0.0034987093953826737
