wavelength,absorbance,absorbance_bk,residual_3gauss
117.0,0.5234162794313558,0.5239596517760602,-0.0003338638428544982
117.5,0.5180177195715209,0.5185610919162252,-0.0015564817811593024
118.0,0.5112864785243145,0.5118298508690189,-0.00354787595029471
118.5,0.5079592802196868,0.5085026525643912,-0.0015899839360675738
119.0,0.5039399561013749,0.5044833284460792,0.00019991288106502303
119.5,0.4985652481156973,0.4991086204604016,0.0011349301675837031
120.0,0.4928707103519313,0.4934140826966356,0.002224397706514114
120.5,0.48562577473798474,0.48616914708268905,0.0022088142656115917
121.0,0.4792601826578792,0.4798035550025835,0.0034861388703256724
121.5,0.4699232626637572,0.47046663500846153,0.00217089633041595
122.0,0.46142870381574275,0.46197207616044705,0.0020387455924178455
122.5,0.4533244680533113,0.4538678403980156,0.0025961552042464975
123.0,0.4419716932556266,0.4425150656003309,0.0001590407969894181
123.5,0.4329067344564244,0.4334501068011287,0.00021451820077261763
124.0,0.422612328873861,0.4231557012185653,-0.0008082325648625655
124.5,0.4131666469212828,0.4137100192659871,-0.0008892167803078443
125.0,0.40244517552629094,0.40298854787099525,-0.0022160239193671494
125.5,0.39248105464137,0.3930244269860743,-0.0028237328362321623
126.0,0.38383899373095937,0.3843823660756637,-0.002221169761500885
126.5,0.37394226395782737,0.3744856363025317,-0.0030639924977726163
127.0,0.3664061443424389,0.3669495166871432,-0.0018211880873946207
127.5,0.3574558287321945,0.3579992010768988,-0.0023569400960595233
128.0,0.3504038144283933,0.3509471867730976,-0.001452806492878933
128.5,0.34382963010734435,0.34437300245204866,-0.0006273130004459948
129.0,0.3379620721625205,0.3385054445072248,0.00024724178845847433
129.5,0.3326951105637683,0.33323848290847263,0.000961959711543614
130.0,0.3281271726220717,0.328670544966776,0.0015122239197604692
130.5,0.3246763973954686,0.3252197697401729,0.002214889603565806
131.0,0.3220434715004695,0.32258684384517383,0.0026733907194909645
131.5,0.3195827363780575,0.3201261087227618,0.0021514313996437995
132.0,0.3190116820760905,0.3195550544207948,0.0022853368362463766
132.5,0.3196631704786701,0.3202065428233744,0.0023393459670022487
133.0,0.3207578144627502,0.3213011868074545,0.001481191004428506
133.5,0.323210145910339,0.3237535182550433,0.0005914950979273303
134.0,0.32731741975693407,0.3278607921016384,-4.428463306338504e-05
134.5,0.33218394347191305,0.33272731581661735,-0.0013086143022162378
135.0,0.33881042577753606,0.33935379812224037,-0.0021599923839319968
135.5,0.34680854781191983,0.34735192015662414,-0.002916357764520039
136.0,0.3563392250240384,0.3568825973687427,-0.0033154765650212914
136.5,0.3673844576148837,0.367927829959588,-0.0032425485297621903
137.0,0.38000326585186606,0.38054663819657036,-0.0024746579863444973
137.5,0.3934234491121804,0.3939668214568847,-0.0015904269871785393
138.0,0.4077579546509578,0.40830132699566213,-0.00025614925435318847
138.2,0.41403531100145086,0.41457868334615516,0.0007451560885802233
138.4,0.4197300846147524,0.4202734569594567,0.0011450262104927833
138.6,0.4252651614968681,0.4258085338415724,0.0013833300602238419
138.8,0.43085461699116656,0.43139798933587087,0.001691495652247299
139.0,0.4363350861075003,0.43687845845220463,0.001923816206958473
139.2,0.44145963244260567,0.44200300478730997,0.0018512511323699465
139.4,0.4466375076860762,0.4471808800307805,0.0019011140878678612
139.6,0.45144812984271415,0.45199150218741846,0.0016709765375995111
139.8,0.45633704698680577,0.4568804193315101,0.0016245539157898614
140.0,0.46111669766240393,0.46166007000710824,0.0015923858542676306
140.2,0.46552413112614816,0.46606750347085246,0.0013294740336757815
140.4,0.4696482561196103,0.4701916284643146,0.0009424467383908341
140.6,0.4735619500358099,0.4741053223805142,0.0005215824000784908
140.8,0.47736788655238904,0.47791125889709335,0.00018655064907041607
141.0,0.480728024152568,0.4812713964972723,-0.00038418623311153866
141.2,0.48399472452915215,0.48453809687385646,-0.000822341968143625
141.4,0.48735505215406766,0.48789842449877197,-0.0009255932396142197
141.6,0.4901222175648125,0.4906655899095168,-0.0013662218623609612
141.8,0.4929523251360255,0.4934956974807298,-0.001474450831019214
142.0,0.495341370633942,0.4958847429786463,-0.0017415283673921644
142.2,0.4976838263556406,0.49822719870034493,-0.001761221564473503
142.4,0.49995851990651646,0.5005018922512208,-0.0015440129577198869
142.6,0.5017309525332414,0.5022743248779458,-0.0015148534770219602
142.8,0.5034103987689091,0.5039537711136135,-0.0012561293827663134
143.0,0.5046295999946503,0.5051729723393547,-0.0011280299343734423
143.2,0.5056518929552881,0.5061952652999925,-0.0008614741027636041
143.4,0.5064285949420562,0.5069719672867605,-0.0005007739634230735
143.6,0.5066277389068953,0.5071711112515996,-0.0003749408609849958
143.8,0.5067844188219198,0.5073277911666242,5.26266013410881e-05
144.0,0.5062508346885881,0.5067942070332925,0.00013416276704869556
144.2,0.5056314457193076,0.506174818064012,0.00047267243865967146
144.4,0.5044136965144135,0.5049570688591178,0.0005526510760265335
144.6,0.502607331138783,0.5031507034834873,0.00037940309826367535
144.8,0.5007888446721308,0.5013322170168352,0.000523508324379196
145.0,0.4987123294264766,0.4992557017711809,0.0007316941442974123
145.2,0.49598859006526885,0.49653196240997316,0.0006059879791330269
145.4,0.4931806201881568,0.4937239925328611,0.0006992428337704859
145.6,0.4901123059152712,0.4906556782599755,0.0008239016176975755
145.8,0.4868484829676407,0.487391855312345,0.0010321267641059673
146.0,0.48347406653893155,0.48401743888363585,0.0013950143556680228
146.2,0.47939759891540495,0.47994097126010926,0.0013062374960529088
146.4,0.4753150830372593,0.4758584553819636,0.001445986761393514
146.6,0.4707959416110015,0.47133931395570583,0.0013670468324952223
146.8,0.4660218384656773,0.4665652108103816,0.0012337453346494276
147.0,0.4609890749316795,0.4615324472763838,0.0010244858354328534
147.2,0.4559118835546279,0.4564552558993322,0.0009351863194555499
147.4,0.4501844449346781,0.4507278172793824,0.00034144777144584637
147.6,0.4441658708737681,0.4447092432184724,-0.00041630527129277173
147.8,0.4383142578766847,0.438857630221389,-0.0008986096289864132
148.0,0.4322741084686876,0.4328174808133919,-0.0014793780137328794
148.2,0.42636327711747174,0.42690664946217605,-0.0018587881577650234
148.4,0.42081702213468336,0.42136039447938767,-0.0018190670337168702
148.6,0.41519386461989743,0.41573723696460174,-0.001818471071931893
148.8,0.4098262393097449,0.4103696116544492,-0.0015404795499501245
149.0,0.404733324818664,0.4052766971633683,-0.000980815747140651
149.2,0.3993888328036471,0.3999322051483514,-0.0006795184216569772
149.4,0.3944029845150549,0.3949463568597592,-3.883721323727496e-05
149.6,0.3889359083550209,0.3894792806997252,9.027964439795033e-05
149.8,0.3838041379041151,0.3843475102488194,0.0005147828550360334
150.0,0.37828038490326255,0.37882375724796685,0.0004993775517658783
150.5,0.36505411498355633,0.36559748732826064,0.0007966717736093143
151.0,0.35172464893287486,0.35226802127757917,0.0006029359486756092
151.5,0.33812984429713094,0.33867321664183525,-0.00023144949057074538
152.0,0.3251409934083406,0.3256843657530449,-0.0007618988224655232
152.5,0.3130764718711273,0.3136198442158316,-0.0005461030854881921
153.0,0.30145434460171755,0.30199771694642186,9.387052528103679e-05
153.5,0.2894001881426253,0.2899435604873296,0.00046133065420167485
154.0,0.27714866499795926,0.27769203734266357,0.0009667235208701275
154.5,0.26369884497888807,0.2642422173235924,0.0007632706303901671
155.0,0.24983737671995984,0.2503807490646642,0.000752497914308925
155.5,0.23507076174787583,0.23561413409258014,0.0005026382683705477
156.0,0.21970654661792496,0.22024991896262927,0.00032106180173241405
156.5,0.20339995229897473,0.20394332464367904,-0.00020196052660317876
157.0,0.18705847901074327,0.18760185135544757,-0.0002854780303583604
157.5,0.1708060433092186,0.17134941565392292,1.4985410745099736e-05
158.0,0.1541425799782427,0.15468595232294702,-1.9798913303253896e-05
158.5,0.137836359416931,0.13837973176163532,0.00013568466882815655
159.0,0.12140770610993648,0.1219510784546408,-0.0002472068458402171
159.5,0.1057307168457468,0.10627408919045112,-0.0005326563480982094
160.0,0.0906452739514065,0.09118864629611081,-0.0010934820307118842
160.5,0.07691586439903987,0.07745923674374419,-0.0013406152399035726
161.0,0.06474293214984274,0.06528630449454706,-0.0012039613355232376
161.5,0.053609747397640566,0.054153119742344887,-0.0012819054310792347
162.0,0.04433051908207764,0.04487389142678196,-0.0007935327906021736
162.5,0.03610086418965936,0.03664423653436368,-0.0005318817281829771
163.0,0.02936320348891581,0.029906575833620132,-4.8434197831084824e-06
163.5,0.024010410797777024,0.024553783142481345,0.0007605522651382632
164.0,0.019699131989549874,0.020242504334254195,0.0015228107018606593
164.5,0.01632242845105217,0.016865800795756492,0.002290086663860687
165.0,0.013420156886214405,0.013963529230918724,0.0027228042933774687
165.5,0.011071340471628752,0.011614712816333073,0.003019485638886831
166.0,0.009375491532257075,0.009918863876961396,0.0033929872809675705
166.5,0.0077375691615246996,0.00828094150622902,0.0033518819079413446
167.0,0.006437942806602759,0.006981315151307079,0.00326826211361954
167.5,0.005240830537082559,0.005784202881786879,0.002985240314124301
168.0,0.004430698989026006,0.004974071333730326,0.0028533816751832013
168.5,0.0036871846738151153,0.004230557018519435,0.0026063641679266968
169.0,0.0030516266028376903,0.0035949989475420104,0.002328705166252174
169.5,0.0026851814568768476,0.0032285538015811677,0.0022153103847687835
170.0,0.002269588528746072,0.002812960873450392,0.0019737423181431274
170.5,0.0018750613800243127,0.002418433724728633,0.001693562591653854
171.0,0.0016014301877621704,0.0021448025324664905,0.0014887935740136378
171.5,0.0013887694203612365,0.0019321417650655565,0.0013096920491693126
172.0,0.0012775844381375787,0.0018209567828418988,0.0012038948708488267
172.5,0.0010141302357921443,0.0015575025804964644,0.0009225157347188382
173.0,0.0009089928171530826,0.0014523651618574026,0.0007793414987908394
173.5,0.0007090913760740798,0.0012524637207783997,0.0005233101391514984
174.0,0.000625672888020442,0.001169045232724762,0.00036686742511306747
174.5,0.0006238982318165177,0.0011672705765208378,0.0002758255887236763
175.0,0.0007538437120314333,0.0012972160567357534,0.00030056904999692076
175.5,0.0007765410530909297,0.0013199133977952497,0.00020224779019311885
176.0,0.0007710754319609164,0.0013144477766652365,5.9991720759162764e-05
176.5,0.0009947489644399911,0.0015381213091443112,0.00013116381353829544
177.0,0.001045926928021698,0.0015892992727260182,1.427669556600575e-05
177.5,0.0014512462508757967,0.0019946185955801166,0.00023625728680075602
178.0,0.0014271288385470516,0.001970501183251372,1.400526720136356e-05
178.5,0.001663576931539298,0.002206949276243618,3.822442250960706e-05
179.0,0.001630053679045574,0.002173426023749894,-0.000220669050128425
179.5,0.0019689587213856125,0.0025123310660899326,-0.00011905122641570412
180.0,0.0024174249138898627,0.0029607972585941828,8.17178781696939e-05
180.5,0.00248779032431452,0.00303116266901884,-0.00010423051884113051
181.0,0.002600011374019807,0.003143383718724127,-0.00025486642369896076
181.5,0.002983809055368593,0.003527181400072913,-0.00013812947102081466
182.0,0.003089097080346697,0.003632469425051017,-0.00030152449338726427
182.5,0.00326898736164872,0.0038123597063530403,-0.0003891486835135012
183.0,0.0035600053912847565,0.004103377735989077,-0.0003615173263614834
183.5,0.0037007533745182326,0.004244125719222553,-0.00047694947695729566
184.0,0.003815121323733868,0.004358493668438188,-0.0006084123011571947
184.5,0.003950781844558719,0.0044941541892630395,-0.0007050869730293981
185.0,0.004291188298861142,0.004834560643565462,-0.0005804348079128437
185.5,0.00448981910623929,0.00503319145094361,-0.000578019020524582
186.0,0.0046588576824909845,0.0052022300271953046,-0.0005828906112847771
186.5,0.004964991368810195,0.005508363713514515,-0.00042585295365543934
187.0,0.005107249383510225,0.005650621728214545,-0.0004056829835631659
187.5,0.005189249540483842,0.005732621885188162,-0.0004169372705321705
188.0,0.005547216411275253,0.006090588755979573,-0.0001219784919414867
188.5,0.005773704136290414,0.006317076480994734,7.271244442907422e-05
189.0,0.005902853048587001,0.006446225393291321,0.00020176902167311477
189.5,0.006025670021531268,0.0065690423662355885,0.00035620724334963893
190.0,0.006064952112302135,0.006608324457006455,0.00045834928275034596
190.5,0.006107275491314496,0.006650647836018816,0.0005938246476529154
191.0,0.005802587426026311,0.006345959770730631,0.0004111862009982172
191.5,0.0055343698948621765,0.0060777422395664965,0.00029210877099779525
192.0,0.005876513221145418,0.006419885565849738,0.0008083075223153623
192.5,0.005783277808025214,0.006326650152729534,0.0009115526297259558
193.0,0.0056134898817708926,0.006156862226475213,0.0009579243689162454
193.5,0.00537156358225015,0.00591493592695447,0.0009488989954583218
194.0,0.005000576501340144,0.0055439488460444645,0.0008244904535987087
194.5,0.0046414927323206075,0.0051848650770249275,0.0007225399126010541
195.0,0.003863349800487409,0.0044067221451917285,0.00020896751158080984
195.5,0.003543841090729716,0.004087213435434036,0.00015841609064077156
196.0,0.003056510510196905,0.003599882854901225,-5.849797505314653e-05
196.5,0.002845202693708732,0.0033885750384130523,-6.848835306847399e-07
197.0,0.0024280284791843615,0.0029714008238886816,-0.0001525737764206587
197.5,0.0019596007857781,0.00250297313048242,-0.0003618429585486656
198.0,0.0018206150956507324,0.0023639874403550525,-0.0002498141525063588
198.5,0.001288097261290154,0.001831469605994474,-0.0005411881292853688
199.0,0.0009147143515864232,0.0014580866962907433,-0.0006847257638706774
199.5,0.0004935595869278942,0.0010369319316322141,-0.0008884629608177763
200.0,0.0003447067140831931,0.0008880790587875132,-0.0008331633703495798
200.5,1.161866626969105e-06,0.0005445342113312892,-0.0009863799452366631
201.0,-0.00016768571944525597,0.0003756866252590641,-0.0009790229412737876
201.5,-0.00018420993205161263,0.00035916241265270747,-0.0008335290593329838
202.0,-0.0003459829913422803,0.0001973893533620398,-0.0008473226479175726
202.5,-0.0004410766179392412,0.00010229572676507886,-0.000808144846342316
203.0,-0.0004015021973233469,0.0001418701473809732,-0.0006475226694144448
203.5,-0.0003848125949915064,0.00015855974971281365,-0.0005223997472601741
204.0,-0.0005121347995748676,3.123754512945247e-05,-0.0005531970748926626
204.5,-0.0005433723447043201,0.0,-0.0004990420340448016
205.0,-0.0004997579589706001,4.361438573372001e-05,-0.0003803455908493517
205.5,-0.0004153001766655861,0.00012807216803873399,-0.00023027099981617031
206.0,-0.0003323376179564452,0.00021103472674787485,-9.030745887052434e-05
206.5,-0.0003457393635236075,0.00019763298118071257,-5.4487004677055274e-05
207.0,-0.0002492631620762366,0.00029410918262808347,8.42436351986715e-05
207.5,-0.00026008973703237754,0.00028328260767194254,0.00010947789168716578
208.0,8.098882773551888e-05,0.0006243611724398389,0.00048115277098546914
208.5,-2.147109714551386e-05,0.0005219012475588062,0.0004045029037951276
209.0,2.6615383686572713e-05,0.0005699877283908928,0.00047423702458449456
209.5,0.00010419984325672242,0.0006475721879610425,0.0005698744256472318
210.0,6.238713427872284e-05,0.0006057594789830429,0.0005430314590110761
210.5,-3.0722766760036074e-05,0.000512649577944284,0.0004622645877913649
211.0,-4.87222859759781e-05,0.000494650058728342,0.00045438509539670976
211.5,-0.00016061491380639563,0.00038275743089792445,0.0003507434288201077
212.0,-3.5954086489077385e-06,0.0005397769360554124,0.0005144525362871889
212.5,-0.0002005526873122938,0.0003428196573920263,0.0003228888503992629
213.0,-0.00010609797812544872,0.00043727436657887134,0.0004216681676812599
213.5,-0.00020394897042967525,0.00033942337427464485,0.00032726554828777546
214.0,-0.0001544839363662265,0.0003888884083380936,0.00037946514690023113
214.5,-0.00025406160857146084,0.00028931073613285924,0.0002820441054287023
215.0,-6.494326797770268e-05,0.0004784290767266174,0.00047285399200692373
215.5,-0.00031022609463655774,0.00023314625006776233,0.00022889069331961842
216.0,-1.9167682303300296e-05,0.0005242046624010198,0.0005209728374106267
216.5,-0.0004078178028865651,0.00013555454181775497,0.0001331126533829448
217.0,-0.0003023506950643224,0.00024102164963999768,0.00023918599770445241
217.5,-0.0002836198557763692,0.0002597524889279509,0.0002583795810671169
218.0,-0.0002833254643000056,0.0002600468804043145,0.00025902528487300303
218.5,-0.0002847376739032755,0.0002586346708010446,0.00025787835509943636
219.0,-0.0005254066347156691,1.7965709988650982e-05,1.740863483350771e-05
219.5,-0.0003617917643751702,0.0001815805803291499,0.00018117234460543453
220.0,-0.0001637378144428105,0.00037963453026150956,0.0003793368878821194
