wavelength,absorbance,absorbance_bk,residual_3gauss
117.0,0.4996073425648462,0.5075804521514174,-0.0005261556103406395
117.5,0.49505545688979846,0.5030285664763697,-0.0018381720168660909
118.0,0.49221341167439125,0.5001865212609625,-0.000777621617339963
118.5,0.4859543562316141,0.49392746581818536,-0.0024903064566153543
119.0,0.4824653682834815,0.4904384778700528,-0.0008114689177132761
119.5,0.4799585836039971,0.4879316931905684,0.0024452777572645523
120.0,0.47337823310923066,0.48135134269580193,0.0021949097903185
120.5,0.4663659444729915,0.4743390540595628,0.002046197559183782
121.0,0.45974529157239,0.4677184011589613,0.0027861351814127966
121.5,0.4510485590451612,0.4590216686317325,0.001906560665923096
122.0,0.4432646631910408,0.45123777277761207,0.002351907882208404
122.5,0.4330640583739074,0.44103716796047865,0.000743921636594258
123.0,0.4240292880502424,0.4320023976368137,0.0006119997369886665
123.5,0.41397128565238234,0.4219443952389536,-0.0002907248473199009
124.0,0.40346011865290793,0.4114332282394792,-0.001456856950818819
124.5,0.3941187790045621,0.4020918885911334,-0.0013311487140620915
125.0,0.38366458051706015,0.3916376901036314,-0.002269265503551665
125.5,0.373941091599885,0.38191420118645625,-0.0025059560657175184
126.0,0.3644956829259496,0.37246879251252085,-0.0025775196268745804
126.5,0.35550791353259537,0.36348102311916664,-0.0023933152291805704
127.0,0.34662153550283076,0.354594645089402,-0.002403499369871276
127.5,0.33877740398897066,0.34675051357554193,-0.0017656700353351207
128.0,0.3315767506560355,0.33954986024260675,-0.0009809241763848453
128.5,0.32479369009653986,0.3327667996831111,-0.00038042646512098655
129.0,0.31923546963621524,0.3272085792227865,0.000736049101009717
129.5,0.3137936442973664,0.32176675388393766,0.0011528073645034609
130.0,0.3093425498020371,0.3173156593886084,0.0016385338055891485
130.5,0.30621749951490423,0.3141906091014755,0.002426634298253516
131.0,0.3038620010764127,0.31183511066298397,0.002864891956394333
131.5,0.30246563209887894,0.3104387416854502,0.003056046689077885
132.0,0.3021463037958754,0.3101194133824467,0.0030429739662451993
132.5,0.30205529819860233,0.3100284077851736,0.0019167768027681942
133.0,0.30404629210087214,0.3120194016874434,0.001488913523088442
133.5,0.3070841159443227,0.315057225530894,0.0007030014993121281
134.0,0.31161898129784427,0.31959209088441554,1.1907790956500186e-05
134.5,0.31694610010617613,0.3249192096927474,-0.0012600835904261198
135.0,0.3238853426621852,0.3318584522487565,-0.002235519864199176
135.5,0.3318542720996325,0.33982738168620374,-0.0034092437735750436
136.0,0.3414782671155704,0.34945137670214166,-0.0040374933114775136
136.5,0.3529534094722251,0.36092651905879636,-0.003775076724524873
137.0,0.36559295693994226,0.37356606652651353,-0.003129896767186169
137.5,0.37915427373593974,0.387127383322511,-0.002138018460387636
138.0,0.3937898842675847,0.401762993854156,-0.00041564700106960784
138.2,0.39995330942241863,0.4079264190089899,0.0005420622795600516
138.4,0.40567238000933303,0.4136454895959043,0.0010574353422946325
138.6,0.41152832948898765,0.4195014390755589,0.001728946592099767
138.8,0.41715216164282326,0.42512527122939453,0.0022051230382938436
139.0,0.4218550269726084,0.4298281365591797,0.0018148555031624047
139.2,0.4269134988495992,0.4348866084361705,0.0018526065157298821
139.4,0.43172623913324026,0.43969934871981153,0.0017350048718955957
139.6,0.43656039438283767,0.44453350396940894,0.001747168268034005
139.8,0.44163694416012467,0.44961005374669594,0.002127975810932492
140.0,0.44546854013415615,0.4534416497207274,0.001407829440587427
140.2,0.4502233988528397,0.45819650843941095,0.0017724674741494972
140.4,0.45383634722514943,0.4618094568117207,0.0011739296768804586
140.6,0.4573876794151752,0.4653607890017465,0.0007093329397758197
140.8,0.46087664149036256,0.46884975107693383,0.0003942743004395899
141.0,0.4645646536817269,0.47253776326829816,0.0005059715740842186
141.2,0.4666581780242862,0.4746312876108575,-0.00073395021393724
141.4,0.4697022705592727,0.477675380145844,-0.0007659869758258608
141.6,0.4718196020799585,0.47979271166652976,-0.0014538138577364634
141.8,0.4741272062372691,0.4821003158238404,-0.0016676144063332843
142.0,0.4758065479938602,0.48377965758043145,-0.002214087141990395
142.2,0.4780855220756252,0.4860586316621965,-0.0018545194025734735
142.4,0.4796315294918428,0.48760463907841406,-0.0019117798873564684
142.6,0.48110247752163854,0.4890755871082098,-0.0017193839922666765
142.8,0.482610852058298,0.4905839616448693,-0.0011574825222259721
143.0,0.4830470087573261,0.49102011834389736,-0.0013296268010198897
143.2,0.4834725086751108,0.4914456182616821,-0.0011694839481280472
143.4,0.48351485328645455,0.4914879628730258,-0.0010461468818893094
143.6,0.48351874623396496,0.4914918558205362,-0.0006129111369827522
143.8,0.48353605376954384,0.4915091633561151,0.00018265402699813027
144.0,0.4828396891762301,0.49081279876280137,0.00061256607751492
144.2,0.4816236379369531,0.4895967475235244,0.0008684385474085898
144.4,0.47971320908337106,0.48768631866994233,0.0007717252422520526
144.6,0.4776178846012014,0.4855909941877727,0.0008265717261027317
144.8,0.47536225904295254,0.4833353686295238,0.001050766744972953
145.0,0.47224398473578755,0.4802170943223588,0.0007337094502867791
145.2,0.4691762413838895,0.4771493509704608,0.0007789116518433503
145.4,0.4657988094043677,0.47377191899093896,0.0008151148133102581
145.6,0.46275349249556263,0.4707266020821339,0.0014717675941040564
145.8,0.4586462443697458,0.4666193539563171,0.001341219091921142
146.0,0.45432908701892005,0.4623021966054913,0.0012607152796773047
146.2,0.4498487918704892,0.4578219014570605,0.0012611700066760823
146.4,0.4453941167130589,0.45336722629963017,0.0015145033303525235
146.6,0.44022558609276463,0.4481986956793359,0.0012635346236359868
146.8,0.43490190300534853,0.4428750125919198,0.0010485178726183375
147.0,0.4293345851805118,0.4373076947670831,0.0007619118829422789
147.2,0.4229878627966532,0.43096097238322445,-0.00015157852314345854
147.4,0.41709754820951894,0.4250706577960902,-0.00047598067791781995
147.6,0.41076320952670053,0.4187363191132718,-0.00113172090925312
147.8,0.4049095996219684,0.41288270920853964,-0.0012140297842330172
148.0,0.39889091527378334,0.4068640248603546,-0.001388512588161639
148.2,0.39298226263900954,0.4009553722255808,-0.0013995105287692988
148.4,0.38671464796528826,0.39468775755185953,-0.0017349356350681022
148.6,0.38035936114161767,0.38833247072818894,-0.002141713779491461
148.8,0.3743142740113912,0.3822873835979625,-0.002239316060613672
149.0,0.3695040624824257,0.37747717206899695,-0.001119371779710554
149.2,0.36426911744437346,0.37224222703094473,-0.0004566003425545695
149.4,0.3585904036746084,0.3665635132611797,-0.00028380528432020435
149.6,0.3535943914981776,0.3615675010847489,0.0005131919730394507
149.8,0.34817506966722145,0.3561481792537927,0.0008176847700501755
150.0,0.3421948572086228,0.3501679667951941,0.0004830957840791794
150.5,0.3294296305490556,0.3374027401356269,0.0014470530000557646
151.0,0.3158837312739184,0.32385684086048966,0.0010399932441557125
151.5,0.30300728605011207,0.31098039563668334,0.0007237788448382076
152.0,0.2903119192882102,0.2982850288747815,9.106317896778737e-05
152.5,0.27806615138308943,0.2860392609696607,-0.00044949843962782676
153.0,0.26721467871606386,0.27518778830263513,0.0002303065817163552
153.5,0.25576170194033626,0.26373481152690753,0.00034157837199527696
154.0,0.24399672256343327,0.2519698321500045,0.0003816579419436694
154.5,0.23162649321612616,0.2395996028026974,0.00024339320639363282
155.0,0.2184054767384055,0.22637858632497673,-0.00017500474608458938
155.5,0.20531885318351345,0.2132919627700847,0.0001966731707685465
156.0,0.19084844172748697,0.1988215513140582,-0.0001438901592935582
156.5,0.1759140748118056,0.18388718439837684,-0.00033366667297848873
157.0,0.1603907786528118,0.16836388823938303,-0.0006234539599362376
157.5,0.14557769499943252,0.15355080458600376,0.00010122948583263236
158.0,0.1297833070234566,0.13775641661002785,-7.925358995569676e-05
158.5,0.11470130307321583,0.12267441265978708,0.0002759091706331096
159.0,0.09985978906050665,0.1078328986470779,0.0004371009533003234
159.5,0.08486214258836598,0.09283525217493724,-0.00023585556840738375
160.0,0.07116513854433401,0.07913824813090527,-0.00049926505164892
160.5,0.05895674893940303,0.06692985852597429,-0.0003354879827861812
161.0,0.04749981443675087,0.05547292402332212,-0.0006017674259198233
161.5,0.03728781463694529,0.04526092422351654,-0.0008718486237929909
162.0,0.029273118308699903,0.037246227895271156,-0.00020958730413678933
162.5,0.0218405559165742,0.029813665503145452,-0.00020086801816018157
163.0,0.015534067778727323,0.023507177365298573,-0.0002349955247852517
163.5,0.01108505277184328,0.01905816235841453,0.0005142257785453463
164.0,0.007837018040491946,0.015810127627063197,0.0015034112285678657
164.5,0.004506970750740242,0.012480080337311492,0.001571856211326387
165.0,0.0015237951870031104,0.009496904773574361,0.0012720316879412889
165.5,-0.0003769712042520666,0.007596138382319184,0.001458110578951852
166.0,-0.0017180074298007572,0.0062551021567704935,0.0017166130876422976
166.5,-0.0026731062671503454,0.005300003319420906,0.001970718389811285
167.0,-0.0039641801576054255,0.004008929428965825,0.0015819478235208073
167.5,-0.004803803278317271,0.00316930630825398,0.0014074961607179353
168.0,-0.005232859114184266,0.002740250472386985,0.0014633186520876637
168.5,-0.005142889505668522,0.0028302200809027286,0.0019030699821651594
169.0,-0.006215553462008863,0.0017575561245623877,0.0010802219519907945
169.5,-0.006858349549973188,0.0011147600365980625,0.0006139983845094006
170.0,-0.007202034265754979,0.0007710753208162715,0.00039354732389063816
170.5,-0.007240274633423277,0.0007328349531479737,0.0004397199603651687
171.0,-0.00730366004875264,0.0006694495378186107,0.00043228452310633685
171.5,-0.0071854494245210026,0.0007876601620502481,0.0005851865245888894
172.0,-0.007421567618927578,0.0005515419676436727,0.0003673518700774509
172.5,-0.0076074108789096545,0.0003656987076615962,0.0001864971012770149
173.0,-0.007851055498519572,0.00012205408805167871,-6.361730917578567e-05
173.5,-0.007817672599116225,0.00015543698745502585,-4.726244777309766e-05
174.0,-0.007971030276618342,2.079309952909142e-06,-0.00022799764947341626
174.5,-0.00797310958657125,0.0,-0.0002681099179890483
175.0,-0.007655470277398297,0.0003176393091729535,1.4850000208958998e-07
175.5,-0.007579621395881296,0.0003934881906899543,1.4285420800229788e-05
176.0,-0.0070531273977659965,0.0009199821888052542,0.00046553858873985097
176.5,-0.007357269669993411,0.0006158399165778396,7.127927574618635e-05
177.0,-0.007212038967997557,0.000761070618573694,0.00011008057173081008
177.5,-0.007530817532117459,0.0004422920544537917,-0.00033290403534152547
178.0,-0.006968954923402574,0.0010041546631686764,8.554685210664407e-05
178.5,-0.006649205047876567,0.0013239045386946834,0.00024135282719899898
179.0,-0.005978545794094824,0.001994563792476427,0.000726383480811777
179.5,-0.005882696686746773,0.0020904128998244778,0.0006140155043871671
180.0,-0.005755362136216749,0.002217747450354502,0.0005099658536433203
180.5,-0.005600314673010524,0.0023727949135607263,0.0004102842008428145
181.0,-0.005147590249017254,0.0028255193375539963,0.0005852296184539699
181.5,-0.004544399804151779,0.0034287097824194715,0.000888423881441574
182.0,-0.004757591747895386,0.003215517838675865,0.00035444306526530517
182.5,-0.004932465472259472,0.003040644114311779,-0.00015995640218134264
183.0,-0.003908091497676041,0.00406501808889521,0.0005088636166471609
183.5,-0.004108710974142859,0.0038643986124283916,-5.9976217038505e-05
184.0,-0.003830814941438608,0.004142294645132643,-0.00015897531394944587
184.5,-0.003492089559600656,0.004481020026970595,-0.00020124694578198092
185.0,-0.002943979029345509,0.005029130557225742,-3.315543730123688e-05
185.5,-0.003285433519239023,0.004687676067332228,-0.0007481633425868404
186.0,-0.0032027880004302576,0.004770321586140993,-0.0010268324674739225
186.5,-0.0023282876601203807,0.00564482192645087,-0.0004954910664431633
187.0,-0.002309608472678877,0.005663501113892374,-0.0007959112279924616
187.5,-0.0018845524431688376,0.006088557143402413,-0.0006601703425856663
188.0,-0.0017468876192741304,0.0062262219672971205,-0.0007766603173142497
188.5,-0.001472586399088655,0.006500523187482596,-0.0007164911327256687
189.0,-0.0004246364128935728,0.007548473173677678,0.00016154405252466128
189.5,-0.0001661481442858573,0.0078069614422853935,0.0002977249109193218
190.0,0.00022728660846562063,0.00820039619503687,0.0006189331635920326
190.5,1.0295924075991408e-05,0.007983405510647242,0.0003812707023259634
191.0,-0.00025591024206963504,0.007717199344501616,0.0001463716729349666
191.5,-0.0006129365333266084,0.0073601730532446424,-0.00012800839719143142
192.0,-0.0003098439462700884,0.007663265640301163,0.0003073874549200297
192.5,-0.00037146062381488825,0.007601648962756362,0.0004250638135559273
193.0,7.484526132923458e-06,0.007980594112704175,0.0010267287214275576
193.5,-0.0001930898329863469,0.007780019753584904,0.001087959760397157
194.0,-0.0007374669442379907,0.00723564264233326,0.00083949517513731
194.5,-0.0013119617397895072,0.006661147846781744,0.0005895611958318045
195.0,-0.002155883980631347,0.005817225605939904,9.307560032665446e-05
195.5,-0.002369233834911153,0.005603875751660098,0.00024412136173480436
196.0,-0.003335684459017601,0.00463742512755365,-0.0003468710378206558
196.5,-0.003892652346704524,0.004080457239866726,-0.0005230396788626418
197.0,-0.004164830310157898,0.0038082792764133526,-0.0004144859438766392
197.5,-0.004636796691088767,0.0033363128954824834,-0.0005107658431887045
198.0,-0.005054312584366793,0.002918797002204458,-0.000562092783509523
198.5,-0.005227522575945326,0.0027455870106259245,-0.0003824690417377607
199.0,-0.0059511293879282124,0.0020219801986430383,-0.0007698168014846872
199.5,-0.0058967488125505774,0.0020763607740206733,-0.0003983143932081187
200.0,-0.006072125001130277,0.001900984585440974,-0.00027761601015098385
200.5,-0.006344115426620929,0.001628994159950322,-0.00027586157050438404
201.0,-0.007079358309924967,0.0008937512766462839,-0.0007603862407251365
201.5,-0.006714255939838817,0.001258853646732434,-0.0001677593860527982
202.0,-0.006972922419533854,0.0010001871670373965,-0.0002217976617484318
202.5,-0.006996407769695205,0.000976701816876046,-6.286041373527117e-05
203.0,-0.007022792925750692,0.0009503166608205585,7.198159456989542e-05
203.5,-0.007337685991280068,0.0006354235952911831,-0.00010162309769723833
204.0,-0.007575311311011031,0.00039779827556022003,-0.0002164653982887789
204.5,-0.007233393604794083,0.0007397159817771675,0.0002312759766279676
205.0,-0.0075974431289254196,0.00037566645764583115,-4.230790716549095e-05
205.5,-0.007329017125166678,0.0006440924614045723,0.00030283305671981777
206.0,-0.007793590431434466,0.00017951915513678487,-9.720346522470189e-05
206.5,-0.007216722297724233,0.0007563872888470173,0.0005335285110982002
207.0,-0.007288512955843818,0.0006845966307274329,0.0005063423872538453
207.5,-0.006781261290863009,0.0011918482957082414,0.0010502444459930301
208.0,-0.007280503691327501,0.0006926058952437496,0.0005808847719442269
208.5,-0.006884562450473645,0.0010885471360976059,0.001001004307115665
209.0,-0.006975767843642286,0.0009973417429289646,0.0009292129161504379
209.5,-0.006840824245586569,0.0011322853409846817,0.0010796271065729877
210.0,-0.006847043527899928,0.0011260660586713224,0.0010856432275917506
210.5,-0.00680341828955913,0.001169691297012121,0.0011388727464012524
211.0,-0.006713645137232954,0.0012594644493382967,0.001236128646681423
211.5,-0.006604911011067845,0.0013681985755034055,0.0013506493349579672
212.0,-0.006755246207863849,0.0012178633787074018,0.0012047559060540639
212.5,-0.006903927955572808,0.0010691816309984425,0.0010594585334283775
213.0,-0.0067966265290795936,0.0011764830574916571,0.0011693197205823532
213.5,-0.006458318491856895,0.0015147910947143559,0.0015095496481634758
214.0,-0.006371235392066056,0.0016018741945051946,0.0015980651855329875
214.5,-0.006371267956769035,0.0016018416298022153,0.0015990924833245396
215.0,-0.006623425187460915,0.0013496843991103354,0.0013477137522074072
215.5,-0.006344047809715784,0.0016290617768554665,0.0016276588184330045
216.0,-0.0064697210694901345,0.0015033885170811162,0.0015023965304098406
216.5,-0.006407453476560337,0.001565656110010914,0.001564959496451066
217.0,-0.006567795736919949,0.0014053138496513016,0.0014048279986948234
217.5,-0.006276880150274661,0.0016962294362965896,0.0016958928943119583
218.0,-0.006644185447236514,0.0013289241393347369,0.0013286926129488375
218.5,-0.006380206507408017,0.0015929030791632338,0.0015927448863368484
219.0,-0.0061498248169880405,0.0018232847695832102,0.001823177420551631
219.5,-0.006176316856775727,0.0017967927297955237,0.00179672038046293
220.0,-0.006795563110304184,0.0011775464762670664,0.0011774980483286984
