wavelength,absorbance,absorbance_bk,residual_3gauss
117.0,0.18674865423015247,0.19562340983399304,-0.0012050807226957339
117.5,0.18469945036915084,0.1935742059729914,-0.0012576834319624475
118.0,0.18060687341924656,0.18948162902308713,-0.0031219710355845642
118.5,0.18170913408528416,0.19058388968912474,0.0004252580353590052
119.0,0.1814634690825904,0.19033822468643097,0.002825938098331343
119.5,0.1782462440361016,0.18712099963994216,0.0024409178596674352
120.0,0.17658598610082243,0.185460741704663,0.0037830513269918875
120.5,0.1724862433912296,0.18136099899507016,0.0028400896752347193
121.0,0.17092529363131895,0.17980004923515952,0.0045743900586373565
121.5,0.16707358737207115,0.17594834297591172,0.00414031934804443
122.0,0.16315635074758475,0.17203110635142532,0.0037467696933799477
122.5,0.15896468024361737,0.16783943584745795,0.003168110089686288
123.0,0.1542581258651519,0.16313288146899246,0.002146562576132438
123.5,0.14942934456222912,0.1583041001660697,0.0010565787773267332
124.0,0.14461697809774268,0.15349173370158326,1.736779372313313e-05
124.5,0.14047187159612734,0.1493466271999679,-0.00034130692004039065
125.0,0.13552241041028235,0.14439716601412292,-0.0015142763484480293
125.5,0.13076433376291544,0.139639089366756,-0.002531686243900294
126.0,0.1265374105220745,0.13541216612591508,-0.003082878582454568
126.5,0.12227032492052292,0.1311450805243635,-0.0037720510749699177
127.0,0.11845726307767898,0.12733201868151955,-0.004142158378337535
127.5,0.11535915709091328,0.12423391269475384,-0.003974043557328555
128.0,0.11215883546727952,0.12103359107112008,-0.004131489453762516
128.5,0.10989113321559356,0.11876588881943412,-0.0036310717918977414
129.0,0.10729719931276732,0.11617195491660788,-0.003787513020007807
129.5,0.1062832661554371,0.11515802175927765,-0.0027542163855261703
130.0,0.1052884689454058,0.11416322454924636,-0.0021543501961882178
130.5,0.1050331088935096,0.11390786449735016,-0.001331066479074397
131.0,0.1046915644632885,0.11356632006712906,-0.001172653852170094
131.5,0.10601776632888112,0.11489252193272168,1.5256703970956131e-05
132.0,0.10736999092440104,0.1162447465282416,0.0005371209867118254
132.5,0.10890675257791044,0.117781508181751,0.0005062260035970795
133.0,0.1115378337393741,0.12041258934321467,0.0007986600447145442
133.5,0.1146446408598593,0.12351939646369986,0.0007765431405767909
134.0,0.1189091348033488,0.12778389040718938,0.0011195988706612925
134.5,0.12328053564516256,0.13215529124900313,0.000794095013203433
135.0,0.1284588303090911,0.13733358591293168,0.0005380166532188979
135.5,0.13415573646187007,0.14303049206571064,0.00012298017861719912
136.0,0.1407739471606337,0.14964870276447428,3.359911447348152e-05
136.5,0.14795770074696854,0.1568324563508091,1.7274018066865127e-05
137.0,0.1550945631447961,0.16396931874863668,-0.0004157302561566545
137.5,0.1632752853737012,0.17215004097754177,-3.502876729297166e-05
138.0,0.17154608762397147,0.18042084322781204,0.00035874968289695275
138.5,0.18039058670954347,0.18926534231338404,0.0014117846947414026
139.0,0.1882626002164992,0.19713735582033978,0.0017452451907392086
139.5,0.1955127076306576,0.20438746323449816,0.0018769088781063203
140.0,0.20202320112829292,0.2108979567321335,0.0018510692844021792
140.5,0.2072047082777509,0.21607946388159147,0.001230231135610188
141.0,0.211088098191005,0.21996285379484556,0.0001824110689032099
141.5,0.2138013931235368,0.22267614872737737,-0.0010460566126581083
142.0,0.21580803388474537,0.22468278948858594,-0.0018957236127238042
142.5,0.21710385839158788,0.22597861399542846,-0.002299794105820596
143.0,0.21740771831316272,0.2262824739170033,-0.002495495555551397
143.5,0.21720235048674372,0.2260771060905843,-0.0019844540133407695
144.0,0.21563332640504165,0.22450808200888223,-0.0016343048999508392
144.5,0.21301918651141785,0.22189394211525842,-0.0011685015127822773
145.0,0.20929533139923384,0.21817008700307441,-0.0007218014672268347
145.5,0.20491314489739068,0.21378790050123125,6.004339823476035e-05
146.0,0.199561909171904,0.20843666477574457,0.0007440354006762462
146.5,0.1930673222266412,0.20194207783048176,0.0010111058130503059
147.0,0.1858304978987577,0.19470525350259826,0.001098855676015531
147.5,0.17767434866736503,0.1865491042712056,0.0006530528386120837
148.0,0.1693381141983799,0.17821286980222048,0.00022887995566917008
148.5,0.1616907884833426,0.17056554408718316,0.0005127462015372952
149.0,0.15421410881522832,0.1630888644190689,0.0008150995582771325
149.5,0.147254377229003,0.15612913283284358,0.001332916639412679
150.0,0.14055801785076733,0.1494327734546079,0.001695799858545427
150.5,0.13402117346721634,0.14289592907105692,0.0017247119846310055
151.0,0.1273559110063325,0.13623066661017308,0.0011045220221838625
151.5,0.12109854760476144,0.129973303208602,0.0003946065406599808
152.0,0.11575617014801697,0.12463092575185752,0.00017271534795046395
152.5,0.1099690129352522,0.11884376853909276,-0.0008104585493936278
153.0,0.10525284106439088,0.11412759666823144,-0.000901309645643486
153.5,0.10035299516804252,0.10922775077188308,-0.0012049898217864619
154.0,0.09576362979842616,0.10463838540226672,-0.0010832916736046444
154.5,0.0905475907007052,0.09942234630454576,-0.0013511184788531083
155.0,0.08547535714978631,0.09435011275362687,-0.001151012111739208
155.5,0.07989103994395205,0.08876579554779261,-0.0010960813169857697
156.0,0.0744017614987459,0.08327651710258646,-0.0005840427221912997
156.5,0.0684891648407203,0.07736392044456086,-0.00018350288563311057
157.0,0.06272103689359178,0.07159579249743234,0.0005848215855001754
157.5,0.05688628798731886,0.06576104359115942,0.0013938693660617146
158.0,0.05059331311369739,0.05946806871753795,0.0017213236892652459
158.5,0.04432063419973538,0.05319538980357594,0.001913170696476632
159.0,0.03872237533487865,0.04759713093871921,0.0025007318385029675
159.5,0.032597896781394166,0.041472652385234725,0.0021793563934104643
160.0,0.026498610412669824,0.03537336601651039,0.001421165190011578
160.5,0.020973314481225983,0.02984807008506654,0.0007230612832854477
161.0,0.015916873580734445,0.024791629184575004,-4.485921031960674e-05
161.5,0.011080064110005025,0.019954819713845585,-0.0011320695492888187
162.0,0.006906571376150938,0.0157813269799915,-0.002074804714269147
162.5,0.003611391656559392,0.012486147260399953,-0.0026226586670441213
163.0,0.000627578371681548,0.00950233397552211,-0.0032969665943999027
163.5,-0.0018224910205597968,0.007052264583280764,-0.0038242707880086066
164.0,-0.0036866374871288975,0.005188118116711663,-0.004099836866227611
164.5,-0.004876409473488788,0.003998346130351773,-0.003984268271190005
165.0,-0.006225344061604368,0.0026494115422361925,-0.004263920034379026
165.5,-0.007148368789754761,0.0017263868140857995,-0.004311600429059569
166.0,-0.007776331087867035,0.0010984245159735258,-0.004221690401066422
166.5,-0.008245317887562718,0.0006294377162778426,-0.004099512550027318
167.0,-0.008311993983179779,0.0005627616206607816,-0.003676345816283221
167.5,-0.008656271479732889,0.00021848412410767175,-0.00361154593401698
168.0,-0.00887475560384056,0.0,-0.003485335413625228
168.5,-0.008740696494333284,0.00013405910950727712,-0.003058079486662949
169.0,-0.008515853522715939,0.00035890208112462213,-0.002581511997281487
169.5,-0.008777888984312957,9.686661952760384e-05,-0.0026255610571392345
170.0,-0.008752191003508741,0.00012256460033181933,-0.002409688727584818
170.5,-0.00849758996691325,0.00037716563692731,-0.0019882106398778276
171.0,-0.008403850105359571,0.00047090549848098975,-0.0017474708490010848
171.5,-0.008029688618842658,0.0008450669849979029,-0.0012436138622210855
172.0,-0.008224312949696028,0.000650442654144533,-0.001323932546234999
172.5,-0.007528009482248426,0.001346746121592135,-0.0005273135500609069
173.0,-0.007346230864585927,0.001528524739254634,-0.0002582170092239979
173.5,-0.007191762843162831,0.0016829927606777295,-2.8762614213676332e-05
174.0,-0.0073562766601804035,0.0015184789436601571,-0.00013022097126159666
174.5,-0.006931442166359587,0.0019433134374809737,0.000345920162167295
175.0,-0.006610023275805328,0.002264732328035233,0.0007068973847912468
175.5,-0.006521410827027411,0.0023533447768131497,0.000823169004816815
176.0,-0.006036238309261094,0.0028385172945794663,0.0013238251021869519
176.5,-0.006171178904815835,0.0027035766990247253,0.0011918135241423171
177.0,-0.005983907135021652,0.0028908484688189087,0.001368999712372717
177.5,-0.0056147618859253715,0.003259993717915189,0.0017145244024391443
178.0,-0.005593667658055928,0.0032810879457846323,0.0016979028874568808
178.5,-0.005185720932216276,0.0036890346716242847,0.002053459273550081
179.0,-0.004992002404051315,0.003882753199789246,0.002179535122440046
179.5,-0.005045899570914618,0.0038288560329259426,0.0020421880073161866
180.0,-0.004874494072158025,0.004000261531682535,0.002113825476881003
180.5,-0.004602111078944016,0.0042726445248965446,0.0022696769337597375
181.0,-0.004380714284109952,0.004494041319730609,0.002357419602681177
181.5,-0.004306499854186445,0.004568255749654116,0.0022806048921957824
182.0,-0.004015832837108335,0.004858922766732225,0.0024027412782615686
182.5,-0.0039473101232105606,0.00492744548063,0.0022852492062141226
183.0,-0.0038656879668305367,0.005009067637010024,0.0021635495866168175
183.5,-0.0031715276201969966,0.005703227983643564,0.0026374319213564763
184.0,-0.0030946074555135974,0.005780148148326963,0.0024776532935814775
184.5,-0.0029639558314596337,0.005910799772380927,0.002355913611746021
185.0,-0.0029317687162452484,0.005942986887595312,0.0021209427934268527
185.5,-0.0025381729442393104,0.006336582659601251,0.00223373877370241
186.0,-0.002278728547644066,0.0065960270561964945,0.0022000627330370157
186.5,-0.002260349302363149,0.006614406301477412,0.0019145123246952596
187.0,-0.002166240352233257,0.0067085152516073035,0.0016955740448513258
187.5,-0.0020117010575984163,0.006863054546242144,0.0015298066973918672
188.0,-0.0017038947509457271,0.007170860852894834,0.0015120544587852221
188.5,-0.0016433590198988433,0.007231396583941717,0.0012439161974357304
189.0,-0.0015055060510579992,0.0073692495527825615,0.001052221869050917
189.5,-0.001078917370239279,0.007795838233601282,0.001150712078902408
190.0,-0.0010296477374246132,0.007845107866415948,0.0008757065393987197
190.5,-0.0007970513909764751,0.008077704212864086,0.0007902487625125135
191.0,-0.0008720654865305102,0.00800269011731005,0.00040579270884574456
191.5,-0.0005045772619287433,0.008370178341911817,0.0004748054471695774
192.0,-0.0005595469906374261,0.008315208613203135,0.0001346143498016615
192.5,-0.0003391063079265511,0.00853564929591401,8.527981477236303e-05
193.0,-0.000281160781654998,0.008593594822185562,-0.00010903480888809977
193.5,-0.0002365672195335437,0.008638188384307017,-0.00029726607681804934
194.0,-3.989166959453638e-05,0.008834863934246024,-0.0003122315870455628
194.5,-0.0001590389906977946,0.008715716613142766,-0.000620279883058376
195.0,0.0001444420391222668,0.009019197642962827,-0.0004816127664352826
195.5,0.00014359704963995,0.009018352653480511,-0.0006220607978195802
196.0,0.0002634585310912932,0.009138214134931854,-0.0006157011266883922
196.5,-9.849521330190892e-06,0.00886490608251037,-0.0009757594943824201
197.0,-0.00029219241830188454,0.008582563185538676,-0.0013176940468481863
197.5,-0.00013985151633346852,0.008734904087507092,-0.0011976214955939039
198.0,-0.00031403534122013786,0.008560720262620423,-0.001376824216249255
198.5,-0.0004948970119722564,0.008379858591868305,-0.0015357604004497868
199.0,-0.000673765792484026,0.008200989811356535,-0.0016662853428403516
199.5,-0.0009043500187476538,0.007970405585092906,-0.0018228414124615445
200.0,-0.0010407342866579632,0.007834021317182598,-0.0018604399324360886
200.5,-0.0015368731932605057,0.007337882410580055,-0.002234137627257918
201.0,-0.0014800761459557357,0.007394679457884825,-0.0020325025363615197
201.5,-0.0018855526743006088,0.006989202929539952,-0.0022721392208839147
202.0,-0.0019164326279137312,0.006958322975926829,-0.002117688038389625
202.5,-0.002521744649583924,0.0063530109542566365,-0.0025197822565124466
203.0,-0.0025584085036697937,0.0063163471001707674,-0.0023370189505175967
203.5,-0.0025078265783131833,0.006366929025527377,-0.002052529344764723
204.0,-0.002615051905338569,0.006259703698501992,-0.001913126254514644
204.5,-0.002417287834125284,0.0064574677697152765,-0.00145778404376008
205.0,-0.002536702952339491,0.0063380526515010695,-0.0013104349350429017
205.5,-0.00283264047580783,0.006042115128032731,-0.001332161098276074
206.0,-0.0027311606261149575,0.006143594977725603,-0.000950721202598267
206.5,-0.0030984845794182463,0.005776271024422314,-0.001033980140946241
207.0,-0.0027945365135122135,0.006080219090328347,-0.00044343854223798107
207.5,-0.002979429798708522,0.005895325805132039,-0.00034070816796580045
208.0,-0.0027195380292954377,0.006155217574545123,0.00020642609307989362
208.5,-0.002777854505045985,0.006096901098794576,0.0004336540369226042
209.0,-0.002446663636557249,0.006428091967283311,0.0010474743321152733
209.5,-0.002812050578767117,0.006062705025073443,0.0009606888458206786
210.0,-0.0027092515309635697,0.006165504072876991,0.001337054757889926
210.5,-0.0026490846455213286,0.006225670958319232,0.0016648546257264597
211.0,-0.0025873025278188287,0.0062874530760217325,0.0019875435358514522
211.5,-0.002626848697273348,0.006247906906567213,0.0022014911003514675
212.0,-0.002777087025988476,0.006097668577852084,0.002296749416177852
212.5,-0.0024525685994194473,0.006422187004421114,0.0028582826805519735
213.0,-0.002571532109835517,0.006303223494005044,0.0029674624896947176
213.5,-0.002767857964904751,0.00610689763893581,0.002990108774360195
214.0,-0.00259614900347806,0.0062786066003625,0.003371403611517956
214.5,-0.0024499774908890545,0.006424778112951507,0.0037176383650645343
215.0,-0.0021021038374530445,0.006772651766387516,0.004255988829358604
215.5,-0.0023489680825748687,0.006525787521265692,0.004190017441768657
216.0,-0.0023314818169945417,0.006543273786846019,0.004378874990582068
216.5,-0.0022369118576155505,0.00663784374622501,0.004635410592440686
217.0,-0.00244507484267042,0.006429680761170141,0.004579970849611476
217.5,-0.002236262945898628,0.006638492657941933,0.004932468055894191
218.0,-0.0019556056596741382,0.0069191499441664224,0.005348012558285218
218.5,-0.00223645380633622,0.006638301797504341,0.00519352316212442
219.0,-0.0019842258641423575,0.006890529739698203,0.005563875530697789
219.5,-0.0019045904396056252,0.006970165164234935,0.005753714775938114
220.0,-0.001920681232909976,0.006954074370930584,0.005840235913637428
