wavelength,absorbance,absorbance_bk,residual_3gauss
117.0,0.5917138589708149,0.5914413107259573,-0.003351846794548363
117.5,0.590859285929697,0.5905867376848395,-0.001446464770359479
118.0,0.5886095644737249,0.5883370162288674,1.540894672213966e-05
118.5,0.5819701445386555,0.5816975962937979,-0.0019842684395882104
119.0,0.5808630867352191,0.5805905384903616,0.0024471933981013994
119.5,0.5732794222415672,0.5730068739967097,0.0012654812155655781
120.0,0.5647018248184191,0.5644292765735616,-8.815732200895265e-05
120.5,0.5604228395747438,0.5601502913298863,0.0036311921728801044
121.0,0.5507951653277876,0.55052261708293,0.0027222516370403183
121.5,0.5417821854742101,0.5415096372293525,0.003087920077419426
122.0,0.5309579099679882,0.5306853617231306,0.0022350357392088016
122.5,0.5205393203722402,0.5202667721273826,0.002306527540899439
123.0,0.5090497018723976,0.5087771536275401,0.0017445483040445797
123.5,0.4954622114068066,0.495189663161949,-0.0005661477995861364
124.0,0.48320603376362486,0.4829334855187673,-0.001292213315507218
124.5,0.4705049967569587,0.47023244851210116,-0.0023132060567502277
125.0,0.45796493351157386,0.4576923852667163,-0.003134260592405458
125.5,0.44580943404630347,0.4455368858014459,-0.003650255602428376
126.0,0.43428346268559487,0.4340109144407373,-0.0037419609460575542
126.5,0.42279253050362514,0.4225199822587676,-0.004136431957331488
127.0,0.4127385744735912,0.41246602622873363,-0.0035704539364389
127.5,0.4028589706091888,0.40258642236433123,-0.0034505642142464987
128.0,0.39499050767152105,0.3947179594266635,-0.0020877825050972243
128.5,0.3883156784216427,0.38804313017678516,-0.0004496555262576418
129.0,0.38250882843375994,0.3822362801889024,0.0009879521118592582
129.5,0.3775776195687434,0.37730507132388585,0.002084793178972588
130.0,0.37370173878064017,0.3734291905357826,0.0028778290367538206
130.5,0.37155240754327096,0.3712798592984134,0.0039040115957814647
131.0,0.37058422711259387,0.3703116788677363,0.004495748321374726
131.5,0.37079599746788977,0.3705234492230322,0.004545620724005772
132.0,0.37218787341597376,0.3719153251711162,0.003967626915861333
132.5,0.3755623332844764,0.37528978503961885,0.0035023055799450753
133.0,0.3806248501120431,0.38035230186718555,0.0028214898430205526
133.5,0.3872772758317716,0.387004727586914,0.0018255402858777248
134.0,0.3950429028854852,0.39477035464062765,7.184559085071651e-05
134.5,0.4049760404624464,0.40470349221758883,-0.001312755826794687
135.0,0.416246445387539,0.41597389714268146,-0.0030454767914226966
135.5,0.42912897807918365,0.4288564298343261,-0.004696808729311386
136.0,0.44418125300831646,0.4439087047634589,-0.005512861060060714
136.5,0.4607468158863202,0.46047426764146265,-0.005913406618033579
137.0,0.4792053081884046,0.47893275994354706,-0.0052442608472227925
137.5,0.498817669319772,0.49854512107491444,-0.00393598723612687
138.0,0.5194699891446063,0.5191974408997487,-0.001765307745789535
138.2,0.5276057854510202,0.5273332372061627,-0.0009919675105199977
138.4,0.5358399455614942,0.5355673973166366,-6.758773350823422e-05
138.6,0.5439082515568043,0.5436357033119468,0.0007676543129588875
138.8,0.5516563690187407,0.5513838207738831,0.0013836596099320309
139.0,0.5595964402814686,0.559323892036611,0.002316906449084666
139.2,0.566829760687118,0.5665572124422604,0.002693029438666783
139.4,0.5738659407861934,0.5735933925413358,0.003045881817884566
139.6,0.5808299733761918,0.5805574251313342,0.0035245004150690207
139.8,0.5873523256474537,0.5870797774025961,0.0037830939810615805
140.0,0.5930450810116592,0.5927725327668016,0.0034570799536900454
140.2,0.5985697835495446,0.598297235304687,0.0032308230859288134
140.4,0.6039747157355339,0.6037021674906763,0.0031748071048477433
140.6,0.6080665392593485,0.6077939910144909,0.0021171697419478663
140.8,0.6124575809258229,0.6121850326809654,0.0016908836458560117
141.0,0.6163154279199168,0.6160428796750592,0.001083248001609527
141.2,0.619250477977988,0.6189779297331305,-7.666305919529215e-05
141.4,0.622281911595739,0.6220093633508814,-0.0007521275788887616
141.6,0.6247883405241431,0.6245157922792856,-0.0015482236214837686
141.8,0.6268436566959782,0.6265711084511206,-0.0023760731495802156
142.0,0.6291049114558857,0.6288323632110281,-0.002565051498797599
142.2,0.6309648185850208,0.6306922703401633,-0.002710368396826368
142.4,0.6324295994357478,0.6321570511908903,-0.0027953016463944103
142.6,0.6335751045204969,0.6333025562756394,-0.002735148559132261
142.8,0.6348312980011444,0.6345587497562868,-0.00209280812105328
143.0,0.635111616024198,0.6348390677793404,-0.0019494823672233652
143.2,0.6351829830146924,0.6349104347698349,-0.0015347122713608163
143.4,0.6344365237995696,0.634163975554712,-0.0014557096944479708
143.6,0.6337503914305481,0.6334778431856906,-0.0008345649344101425
143.8,0.6324118586049292,0.6321393103600716,-0.0003861813894293631
144.0,0.6305145611007618,0.6302420128559042,-2.1048331118600494e-05
144.2,0.6281541743090482,0.6278816260641906,0.00035042987704014816
144.4,0.625128123773694,0.6248555755288364,0.0005176495980663276
144.6,0.6217271938257362,0.6214546455808786,0.0007614334175050086
144.8,0.6175917702129144,0.6173192219680569,0.0007103017473099049
145.0,0.6135936169069007,0.6133210686620432,0.0012222912141066633
145.2,0.6089850134256386,0.608712465180781,0.0015341466171781004
145.4,0.6032719860776161,0.6029994378327586,0.0011346202514073145
145.6,0.5978209143598505,0.597548366114993,0.0013711601412805807
145.8,0.592102588407598,0.5918300401627404,0.001694063308090854
146.0,0.5862905221358425,0.586017973890985,0.002254898827029006
146.2,0.5795763604489654,0.5793038122041079,0.002222039041673063
146.4,0.5725903328632179,0.5723177846183604,0.0022012511274047686
146.6,0.5650509901933658,0.5647784419485082,0.001885585339387652
146.8,0.5570390493714406,0.556766501126583,0.0013293845166905127
147.0,0.5491093199267809,0.5488367716819234,0.0010603876780334032
147.2,0.5404459629957316,0.540173414750874,0.0002351776717440801
147.4,0.5318005937445541,0.5315280454996966,-0.00042251736666776285
147.6,0.5228117919524758,0.5225392437076183,-0.0013021053656312453
147.8,0.5140525971084028,0.5137800488635452,-0.001858419724913296
148.0,0.505052301158525,0.5047797529136674,-0.0025897054810354314
148.2,0.49673533380917967,0.4964627855643221,-0.0025985093976181872
148.4,0.4883888884105848,0.48811634016572725,-0.0026238282473162733
148.6,0.48047569251682826,0.4802031442719707,-0.002228113685338262
148.8,0.47217039708846326,0.4718978488436057,-0.002260662422245985
149.0,0.46512990684625555,0.464857358601398,-0.0010870720090064845
149.2,0.4573802126510658,0.45710766440620826,-0.0007022042902791736
149.4,0.4498400724068076,0.44956752416195006,-0.00020631302524121153
149.6,0.4428004145551544,0.44252786631029684,0.0006745353814535671
149.8,0.4349528205425028,0.4346802722976452,0.0006171014479990911
150.0,0.42756930105848834,0.4272967528136308,0.0008808844107504599
150.5,0.4097158047506895,0.40944325650583197,0.0014606018214043948
151.0,0.39211100262242066,0.3918384543775631,0.0012516984033295042
151.5,0.37526747520797377,0.3749949269631162,0.0007784326180207413
152.0,0.35925866778026894,0.3589861195354114,0.00022102733816031783
152.5,0.3444841086980297,0.34421156045317214,0.00016806774043748307
153.0,0.3303849390951483,0.33011239085029076,0.00031187924666220557
153.5,0.3167060216455944,0.31643347340073685,0.0006846941050213107
154.0,0.3027094679635105,0.30243691971865294,0.0008427427088126271
154.5,0.28745932274771746,0.2871867745028599,0.00012083136259266603
155.0,0.2720583432229444,0.27178579497808686,-0.0001586297783162105
155.5,0.2557484616188546,0.25547591337399705,-0.0006077116884271039
156.0,0.23877013318698656,0.23849758494212897,-0.0009286606704636546
156.5,0.22092996730615183,0.22065741906129424,-0.0013523570620268544
157.0,0.20382719703716984,0.20355464879231225,-0.00040857899102605955
157.5,0.18585172816122364,0.18557917991636605,8.3990848949278e-05
158.0,0.1678166549282399,0.16754410668338232,0.0006692555930304933
158.5,0.14958282180177562,0.14931027355691803,0.0009019053174245395
159.0,0.13152192818333083,0.13124937993847324,0.0008360814445146636
159.5,0.11396956368539046,0.11369701544053287,0.0005031422547730202
160.0,0.09733629847475975,0.09706375022990216,4.424558203611206e-05
160.5,0.08147551386434526,0.08120296561948767,-0.0009053645447758829
161.0,0.06807515083959631,0.06780260259473872,-0.0008142210763417285
161.5,0.05566152617163851,0.05538897792678092,-0.0012467284534831008
162.0,0.0452792047247997,0.04500665647994211,-0.0011850110669944444
162.5,0.03673184345921916,0.03645929521436157,-0.0007945579937985517
163.0,0.029624871565828156,0.02935232332097057,-0.0003914191718310464
163.5,0.02436448564499418,0.024091937400136595,0.0005450204288607631
164.0,0.01999303710911426,0.019720488864256674,0.0011951758910661303
164.5,0.016252617806484373,0.015980069561626786,0.001451289334740839
165.0,0.01376678253371657,0.013494234288858983,0.0020891429059831726
165.5,0.011509251993277675,0.011236703748420089,0.0022288084988984543
166.0,0.009929167592386169,0.009656619347528582,0.002454188334811697
166.5,0.00850532672778448,0.008232778482926894,0.0023636925873340396
167.0,0.007529586627863985,0.007257038383006398,0.0023519720548489387
167.5,0.006706748233675152,0.006434199988817565,0.002209640022853292
168.0,0.005944185927943072,0.005671637683085484,0.0019138358363577066
168.5,0.005406764572979364,0.005134216328121777,0.0016847775460078806
169.0,0.004891670056286758,0.004619121811429171,0.001362591216999684
169.5,0.004397332742893061,0.004124784498035473,0.0009783315455164747
170.0,0.003998538871870566,0.0037259906270129786,0.000631101615280225
170.5,0.0035701392853657024,0.0032975910405081154,0.00021356487736266978
171.0,0.0032085852971585616,0.0029360370523009746,-0.00016497886816787708
171.5,0.0030829828237753554,0.0028104345789177684,-0.00032627699826464057
172.0,0.002936475865733324,0.002663927620875737,-0.0005207416735916338
172.5,0.00256874021930006,0.002296191974442473,-0.0009441896429193916
173.0,0.0024812300022640345,0.0022086817574064476,-0.0010920234480607622
173.5,0.0025452091228341726,0.0022726608779765857,-0.0010907830088798896
174.0,0.0024569953179073368,0.00218444707304975,-0.0012426043689921546
174.5,0.0021771414467920782,0.001904593201934491,-0.0015858306005978554
175.0,0.002306290050304026,0.002033741805446439,-0.0015190144001637658
175.5,0.00225618967969404,0.001983641434836453,-0.001629804978312961
176.0,0.002723565360968575,0.0024510171161109882,-0.0012210128060585355
176.5,0.00263829550543854,0.002365747260580953,-0.0013623897432093438
177.0,0.0025292464816589087,0.0022566982368013217,-0.0015247661847440698
177.5,0.0022707651500118685,0.0019982169051542815,-0.0018335400061696094
178.0,0.0027830042627697373,0.0025104560179121504,-0.0013683390837559407
178.5,0.002557564682851963,0.002285016437994376,-0.001637371225239691
179.0,0.0027753416645815835,0.0025027934197239966,-0.001459572810275635
179.5,0.0031011707961960066,0.0028286225513384196,-0.001169959585628138
180.0,0.0032113484085687163,0.0029388001637111294,-0.001092104185165367
180.5,0.003160547288967102,0.002887999044109515,-0.0011712191248970773
181.0,0.0031491587456572924,0.0028766105007997055,-0.0012068139553187158
181.5,0.0032597165389003165,0.0029871682940427295,-0.0011162708737639917
182.0,0.003333429535855424,0.003060881290997837,-0.0010583118163573452
182.5,0.0036444103777601585,0.0033718621329025715,-0.0007587696571353022
183.0,0.004022627531898739,0.0037500792870411516,-0.0003876360837385463
183.5,0.003795693555223041,0.003523145310365454,-0.0006172732823746573
184.0,0.003990525255153528,0.0037179770102959407,-0.0004207537182824117
184.5,0.004301068410801004,0.004028520165943417,-0.00010413532877817915
185.0,0.004181340507941275,0.003908792263083688,-0.00021341866198485316
185.5,0.004545723792441563,0.004273175547583975,0.00016574635259198906
186.0,0.0043752508440115965,0.004102702599154009,1.4346209383860227e-05
186.5,0.004680711494906407,0.00440816325004882,0.0003431110360226893
187.0,0.004723334092825527,0.004450785847967939,0.00041319620734138907
187.5,0.004899985562135817,0.00462743731727823,0.0006213828183297253
188.0,0.0048464106772078495,0.004573862432350262,0.000603317428767871
188.5,0.005431614295954808,0.0051590660510972206,0.001227894825621901
189.0,0.005459795521212893,0.005187247276355306,0.0012991927680654869
189.5,0.005377431412346864,0.005104883167489277,0.0012635563340969978
190.0,0.005372416865239413,0.005099868620381825,0.0013087384829618795
190.5,0.005643469833593291,0.005370921588735703,0.0016333060019145772
191.0,0.0055785284892085965,0.005305980244351009,0.001625037430219301
191.5,0.005584545910757302,0.0053119976658997144,0.0016907185448500465
192.0,0.005723596910845194,0.005451048665987606,0.0018922500123846292
192.5,0.0054018972991361856,0.005129349054278598,0.0016356674993998383
193.0,0.005564320277370244,0.005291772032512657,0.0018656589316170986
193.5,0.005324764023780048,0.005052215778922461,0.0016959329536642758
194.0,0.005353108605712248,0.005080560360854661,0.0017961767226162906
194.5,0.005089359292683112,0.004816811047825525,0.0016062001019494167
195.0,0.005042029875004177,0.004769481630146589,0.001634319855547641
195.5,0.004564269457234085,0.0042917212123764975,0.0012334873056645893
196.0,0.004763460750114862,0.004490912505257275,0.0015108874733351352
196.5,0.004445088230227056,0.004172539985369469,0.0012718080655362788
197.0,0.003980188227938273,0.0037076399830806863,0.0008870903650037214
197.5,0.0035458459567676054,0.0032732977119100184,0.0005336270314588707
198.0,0.003332956258889119,0.003060408014031532,0.00040212358493194565
198.5,0.0027986481330054395,0.0025260998881478525,-5.047636626941826e-05
199.0,0.002425973239613617,0.00215342499475603,-0.00034130196122790415
199.5,0.0021114835819869998,0.0018389353371294126,-0.0005739767903061531
200.0,0.001730038195604358,0.0014574899507467708,-0.0008738116370285108
200.5,0.0012202248617200794,0.0009476766168624922,-0.001302382244346029
201.0,0.0012123990319394303,0.0009398507870818432,-0.0012294899200847934
201.5,0.0009896488325682115,0.0007171005877106243,-0.0013721961140510466
202.0,0.0008114971814003144,0.0005389489365427273,-0.001471119934954911
202.5,0.0008267578770534494,0.0005542096321958622,-0.0013775817474577575
203.0,0.0010055014044948233,0.0007329531596372361,-0.0011216371057178748
203.5,0.0009310575656398664,0.0006585093207822793,-0.0011200739141834397
204.0,0.0005677748031466876,0.00029522655828910044,-0.0014086529467753734
204.5,0.0009177314668251516,0.0006451832219675645,-0.0009853964739599992
205.0,0.0005081193752098348,0.00023557113035224767,-0.0013232046437573765
205.5,0.00040821791168426904,0.00013566966682668192,-0.0013528813755942406
206.0,0.0005811780886390952,0.0003086298437815081,-0.0011113503315431828
206.5,0.0009452743891889075,0.0006727261443313203,-0.0006804031532035074
207.0,0.0005850188677630936,0.00031247062290550644,-0.0009755854804738195
207.5,0.0007220636325310091,0.000449515387673422,-0.0007752946266363439
208.0,0.0007850670823238429,0.0005125188374662558,-0.0006509135343161878
208.5,0.0005264638398669137,0.00025391559500932654,-0.0008500410676028415
209.0,0.0008351811945800109,0.0005626329497224237,-0.00048377582408284047
209.5,0.0008564708261523855,0.0005839225812947983,-0.0004068846925183887
210.0,0.0008541521703767361,0.0005816039255191489,-0.00035555979159248023
210.5,0.000657843936115644,0.00038529569125805683,-0.0005001872777428535
211.0,0.0008354320861073394,0.0005628838412497523,-0.0002728797062907408
211.5,0.0007086816680301788,0.00043613342317259165,-0.0003518645563995256
212.0,0.0006691265091581083,0.00039657826430052116,-0.00034559490355006085
212.5,0.0009003370986311649,0.0006277888537735779,-7.048191261320772e-05
213.0,0.0002725482448575871,0.0,-0.0006562675612123105
213.5,0.0006864865482388817,0.0004139383033812946,-0.00020219755051521592
214.0,0.0004715929248099925,0.00019904467995240536,-0.0003787991653312891
214.5,0.0005658872733460102,0.00029333902848842304,-0.0002480169885789505
215.0,0.0006113709930446513,0.00033882274818706413,-0.00016781076079151568
215.5,0.0007864954794877262,0.0005139472346301392,4.031274509635064e-05
216.0,0.0009345585641577984,0.0006620103193002113,0.00021969580083726212
216.5,0.0006479402561105949,0.0003753920112530078,-3.723488786448129e-05
217.0,0.0006468374449420384,0.0003742892000844513,-1.0233819255540478e-05
217.5,0.0008835089651173225,0.0006109607202597353,0.0002530080408000149
218.0,0.0009721202759434464,0.0006995720310858592,0.00036670762482634314
218.5,0.001107585100484932,0.0008350368556273447,0.0005258311036890652
219.0,0.0010277596631111472,0.00075521141825356,0.00046828784098581306
219.5,0.0012588451016566954,0.0009862968567991082,0.0007203325384878099
220.0,0.001423891192332702,0.0011513429474751147,0.0009050687112402253
