wavelength,absorbance,absorbance_bk,residual_3gauss
117.0,0.15310970686471106,0.15828137972950906,-0.00118563264975044
117.5,0.15430360379656824,0.15947527666136624,4.4636511925683076e-05
118.0,0.1540865156833537,0.15925818854815166,0.00023264191551436442
118.5,0.15320521450292557,0.15837688736772354,0.00012019916251151952
119.0,0.15121739450474675,0.15638906736954472,-0.0007430371147268411
119.5,0.15072687512539804,0.15589854799019603,0.00023560337433367606
120.0,0.14913590546237843,0.1543075783271764,0.00044410233486191775
120.5,0.14729422688216143,0.1524658997469594,0.0007148230571685232
121.0,0.14498185671456343,0.1501535295793614,0.0008073168429577615
121.5,0.1417964436363673,0.14696811650116526,0.0002957155529778044
122.0,0.13968434883667138,0.14485602170146938,0.001099864206016099
122.5,0.13680455043602624,0.1419762233008242,0.0013492917137877536
123.0,0.13236043825818933,0.1375321111229873,0.0002150884236112316
123.5,0.1284423928778324,0.1336140657426304,-0.0002474129186774976
124.0,0.12429443062525412,0.1294661034900521,-0.0008318671910728936
124.5,0.12107393521625116,0.12624560808104915,-0.0004210320539854706
125.0,0.11713846207520268,0.12231013494000066,-0.0006997757686430656
125.5,0.1132421167203566,0.11841378958515458,-0.0009584688096987148
126.0,0.10947741751421394,0.11464909037901193,-0.0011508406361105533
126.5,0.10569449446489512,0.11086616732969311,-0.0014744411378493777
127.0,0.10294414908795461,0.1081158219527526,-0.0009271729848498861
127.5,0.1001123472961731,0.10528402016097109,-0.0006723147918942796
128.0,0.09733695471061021,0.1025086275754082,-0.0006212189469200768
128.5,0.09511551523476647,0.10028718809956445,-0.0003248786508222856
129.0,0.09416796643986904,0.09933963930466702,0.0008895310118338523
129.5,0.09203702118877449,0.09720869405357248,0.0005198652332260717
130.0,0.09123961364310956,0.09641128650790755,0.0010413662975324312
130.5,0.09048840989322189,0.09566008275801988,0.0011291533812718413
131.0,0.09013168075255373,0.09530335361735172,0.0010991253380741306
131.5,0.09048710791530767,0.09565878078010566,0.0012428242979215937
132.0,0.090811393078564,0.09598306594336199,0.0007981005996789831
132.5,0.09245586427434717,0.09762753713914515,0.0011057389701083914
133.0,0.09388968309487501,0.099061355959673,0.0006336108909652527
133.5,0.09633089161535731,0.1015025644801553,0.0006085500297178248
134.0,0.09880142962932288,0.10397310249412087,7.203781498955897e-05
134.5,0.1017915791653174,0.10696325203011539,-0.00045488712113531116
135.0,0.1055046848897116,0.11067635775450958,-0.0007266878651049635
135.5,0.10939229371173674,0.11456396657653473,-0.0012382493677952633
136.0,0.11361175889052275,0.11878343175532073,-0.0017676437829940994
136.5,0.1188430625715951,0.12401473543639309,-0.0015600073307105028
137.0,0.1239263029468829,0.12909797581168087,-0.0016910919347642162
137.5,0.12976319704128694,0.13493486990608494,-0.0011671378871357385
138.0,0.1356796891959481,0.1408513620607461,-0.0005639617207546521
138.5,0.1417731759720868,0.1469448488368848,0.000318280360192158
139.0,0.14738923482167027,0.15256090768646824,0.0009295824447019818
139.5,0.15291004119376936,0.15808171405856736,0.001756070080173755
140.0,0.15725903778600675,0.16243071065080472,0.0018220993154003384
140.5,0.1607559178436644,0.16592759070846236,0.001542606229643917
141.0,0.1633191885580017,0.16849086142279968,0.0009230491745146341
141.5,0.16519700948541485,0.17036868235021285,0.0002877180933766599
142.0,0.1662223959399618,0.17139406880475977,-0.0004674183193277559
142.5,0.16714070729412758,0.17231238015892558,-0.0005493269357327857
143.0,0.16752884846797003,0.17270052133276803,-0.0003504779224766663
143.5,0.16625796736048457,0.17142964022528256,-0.0009875047843361795
144.0,0.16506798698451108,0.17023965984930906,-0.0007275414495210297
144.5,0.1631696244956977,0.1683412973604957,-0.00038651031502645594
145.0,0.16027784665353925,0.16544951951833725,-0.00029534231158284685
145.5,0.1568986207920075,0.16207029365680548,-1.2208637213406703e-05
146.0,0.15299416741647506,0.15816584028127306,0.0003444891175827247
146.5,0.14854638107439913,0.15371805393919713,0.0006620615850594924
147.0,0.14295318229228815,0.14812485515708612,0.00023316074859047742
147.5,0.13747945516413757,0.14265112802893554,0.00021069557162045616
148.0,0.13137387796586011,0.1365455508306581,-0.00027077020689986186
148.5,0.1254300305201511,0.13060170338494909,-0.0005289317541622429
149.0,0.11990596010530004,0.12507763297009802,-0.0004090322968625104
149.5,0.11487898552079633,0.12005065838559431,7.594336351084141e-05
150.0,0.10968159350691128,0.11485326637170927,0.0001856700642874215
150.5,0.10517848127894316,0.11035015414374115,0.0007331573625053017
151.0,0.09990581077051097,0.10507748363530896,0.00022640669116096024
151.5,0.09534531214487175,0.10051698500966974,0.0001433909920688925
152.0,0.09075662077652644,0.09592829364132442,-0.00023645203718719587
152.5,0.08656266316597144,0.09173433603076943,-0.00044944854639562826
153.0,0.08321878444759434,0.08839045731239233,1.7170127978569094e-05
153.5,0.07952756072660652,0.08469923359140451,3.444691525622545e-05
154.0,0.07588155251971986,0.08105322538451784,6.790364505877833e-05
154.5,0.07207781923164609,0.07724949209644408,-1.4842109591975405e-05
155.0,0.06846687388695923,0.07363854675175721,0.00019825909646488393
155.5,0.06416300438345647,0.06933467724825446,-0.0001317116510445443
156.0,0.059760508747434125,0.0649321816122321,-0.0003826955817659433
156.5,0.05538251879240668,0.060554191657204666,-0.00042530233507823145
157.0,0.05098172861122749,0.056153401476025475,-0.0003225395221189767
157.5,0.0468285352047272,0.05200020806952518,0.00015985725323403727
158.0,0.042533856317288815,0.0477055291820868,0.0005795252620109312
158.5,0.03788427633924336,0.04305594920404134,0.0006572486135494188
159.0,0.03296218133205908,0.03813385419685707,0.0004025390001106202
159.5,0.028151226104390487,0.03332289896918847,0.00012478901664077918
160.0,0.02374672504201471,0.028918397906812696,4.903395948289632e-05
160.5,0.019289886508927663,0.02446155937372565,-0.0003452296208253172
161.0,0.015224829823155551,0.02039650268795354,-0.0006635704473169322
161.5,0.012376904678640749,0.017548577543438734,-0.00011615944244913745
162.0,0.009606183670236362,0.014777856535034347,0.00013652630405244434
162.5,0.006424959606389625,0.01159663247118761,-0.0003992232547307909
163.0,0.004421522955919553,0.009593195820717538,-0.00012800615057834835
163.5,0.00247822015442044,0.007649893019218425,-0.0001494064418148082
164.0,0.0008057514894590878,0.005977424354257074,-0.00022626954107362544
164.5,-0.00017722401694170563,0.004994448847856279,9.220410400165736e-05
165.0,-0.0009454819450161412,0.004226190919781844,0.00036648880546731426
165.5,-0.0018521752756899769,0.0033194975891080083,0.0002795204384124076
166.0,-0.0024522620617264622,0.002719410803071523,0.0003114208067687093
166.5,-0.0031374901819080448,0.0020341826828899406,0.00010313765671667919
167.0,-0.003368984365594114,0.0018026884992038716,0.00022294997857831914
167.5,-0.0035280046697976487,0.0016436681950003367,0.0003152230173978322
168.0,-0.003846142339103924,0.0013255305256940613,0.00017007486299144836
168.5,-0.004025529513474296,0.0011461433513236894,0.0001032944708110454
169.0,-0.004377589936139068,0.0007940829286589178,-0.00018209952267205626
169.5,-0.004272636292316992,0.0008990365724809938,-4.5039787877119205e-05
170.0,-0.004059528245370997,0.0011121446194269887,0.00017439328307491475
170.5,-0.0040896355824009915,0.001082037282396994,0.00013146907332910217
171.0,-0.004268718951150614,0.000902953913647371,-7.46456674528195e-05
171.5,-0.0042010309943172645,0.0009706418704807209,-4.461026250621603e-05
172.0,-0.0047464481173061105,0.0004252247474918749,-0.0006357227856361271
172.5,-0.00501176265580954,0.00015991020898844556,-0.0009529522241305101
173.0,-0.005098352054145232,7.332081065275324e-05,-0.0010964023645341884
173.5,-0.005011564692789482,0.00016010817200850375,-0.0010705399980812363
174.0,-0.005171672864797985,0.0,-0.0012950298813107345
174.5,-0.0046395543368895915,0.0005321185279083939,-0.0008303299212839004
175.0,-0.005008523086021822,0.0001631497787761638,-0.001269459978360809
175.5,-0.004773093839495569,0.000398579025302416,-0.0011067228089298225
176.0,-0.004415739387596926,0.0007559334772010593,-0.0008244311852262105
176.5,-0.00446316848158546,0.0007085043832125255,-0.0009491651779422216
177.0,-0.004288180367378712,0.0008834924974192738,-0.0008536127816628554
177.5,-0.004469861844785153,0.0007018110200128326,-0.0011167576829829995
178.0,-0.0034839771609332542,0.0016876957038647312,-0.0002142629970979899
178.5,-0.003961456642238831,0.0012102162225591543,-0.0007769558488036968
179.0,-0.0032411248213710868,0.0019305480434268986,-0.0001435528551310193
179.5,-0.003642896762686312,0.0015287761021116732,-0.0006338547456301593
180.0,-0.003527193674795152,0.0016444791900028333,-0.0006081609007859414
180.5,-0.002940808193514969,0.0022308646712830165,-0.00011313399080341334
181.0,-0.0032240860884986443,0.001947586776299341,-0.0004889813378978021
181.5,-0.002741691121197369,0.0024299817436006163,-0.00010021964576301069
182.0,-0.002848015697386451,0.0023236571674115345,-0.00030108568521652716
182.5,-0.002816017821185359,0.0023556550436126264,-0.0003643734077303255
183.0,-0.0027192339012169584,0.002452438963581027,-0.00036344701434117303
183.5,-0.0024024574310947855,0.0027692154337032,-0.00014291998660116972
184.0,-0.002240883160128853,0.0029307897046691326,-7.779968471515299e-05
184.5,-0.002164815847670065,0.0030068570171279205,-9.819659851071543e-05
185.0,-0.001760834727070202,0.0034108381377277834,0.00020951062875206256
185.5,-0.0019126530107272048,0.0032590198540707804,-3.818492282013685e-05
186.0,-0.0015173802043888368,0.0036542926604091483,0.00026181856383828556
186.5,-0.00149794903354083,0.0036737238312571554,0.00018680399442640811
187.0,-0.0012465129745476504,0.0039251598902503345,0.0003448370644481779
187.5,-0.0010284357233400127,0.004143237141457973,0.0004707759812694278
188.0,-0.0010133699583590788,0.004158302906438907,0.0003951918547159968
188.5,-0.0005531333975084326,0.004618539467289553,0.0007664917610560543
189.0,-0.0005141122258095998,0.0046575606389883855,0.0007185144085142666
189.5,-0.0003369653358409004,0.004834707528957085,0.0008108249673327139
190.0,-0.0003773430285984235,0.004794329836199562,0.0006879954220736758
190.5,-0.0005307545104342052,0.0046409183543637805,0.00045473611606015873
191.0,-3.157199967382532e-05,0.00514010086512416,0.0008768906800896287
191.5,-0.00010455339445709631,0.005067119470340889,0.000729912399765581
192.0,0.0002331273597185396,0.005404800224516525,0.000996832888965315
192.5,-0.00012250464788862402,0.005049168216909362,0.0005738762248668153
193.0,0.0004475749456904764,0.005619247810488462,0.0010802582578016487
193.5,0.00013898806682101497,0.005310660931619001,0.0007117839958745154
194.0,0.0007273139145553397,0.005898986779353325,0.001244206439197264
194.5,0.0011105074248406756,0.006282180289638661,0.0015756442048911832
195.0,0.001339211788361683,0.0065108846531596685,0.0017568932472394163
195.5,0.0009546602906612882,0.006126333155459273,0.0013293279470685737
196.0,0.001022435351766206,0.006194108216564191,0.0013586594527461105
196.5,0.001046359292853477,0.006218032157651462,0.001348825805169077
197.0,0.0011600581258540106,0.006331730990651996,0.0014335551471155693
197.5,0.0011261727496760495,0.006297845614474035,0.0013755764047131682
198.0,0.0010632834406171716,0.0062349563054151565,0.0012935433322236387
198.5,0.0006947771748755523,0.0058664500396735375,0.0009109014612117532
199.0,0.00020295127810404187,0.005374624142902028,0.000409991451696564
199.5,-0.0003343042319917121,0.004837368632806273,-0.00013126878658540047
200.0,-0.0007518102165036229,0.004419862648294363,-0.0005476878077153814
200.5,-0.0005709801917863558,0.00460069267301163,-0.0003606824690709125
201.0,-0.001064816058059039,0.004106856806738946,-0.0008432736428177299
201.5,-0.0012006469393277567,0.003971025925470229,-0.000962824958721983
202.0,-0.0011485465005052035,0.004023126364292782,-0.0008894599448547712
202.5,-0.0012618011994472063,0.003909871665350779,-0.0009765300251710135
203.0,-0.0011704587754884485,0.004001214089309537,-0.0008541626773622942
203.5,-0.0016183243591716414,0.003553348505626344,-0.0012662571380335575
204.0,-0.0018204326418334443,0.003351240222964541,-0.0014279560967394214
204.5,-0.0016692537911449671,0.0035024190736530183,-0.0012318510683408642
205.0,-0.0018658569227270672,0.003305815942070918,-0.0013791452576255216
205.5,-0.00281660265437442,0.002355070210423565,-0.002276345446973932
206.0,-0.003035792524408913,0.0021358803403890726,-0.0024379106932279045
206.5,-0.0029149334672396005,0.002256739397558385,-0.002255516031819603
207.0,-0.002367101712676568,0.0028045711521214175,-0.0016424155599917226
207.5,-0.0028475888268559746,0.0023240840379420108,-0.002054087622504161
208.0,-0.0018694817795527228,0.0033021910852452626,-0.0010038139903486773
208.5,-0.0018605585157506527,0.0033111143490473327,-0.0009195745162439042
209.0,-0.0018529238251372925,0.003318749039660693,-0.0008336820665873147
209.5,-0.0017611441876627335,0.003410528677135252,-0.0006609164140699529
210.0,-0.0019401215628978604,0.0032315513019001247,-0.000756397064761838
210.5,-0.0017251039884755759,0.0034465688763224093,-0.00045559289098141267
211.0,-0.001772872427770099,0.0033988004370278865,-0.0004155080160427329
211.5,-0.0021471067964728215,0.003024566068325164,-0.0007000468863401013
212.0,-0.001737329251842201,0.0034343436129557845,-0.0001989566201670871
212.5,-0.0017594366681269792,0.0034122361966710062,-0.0001283585621654898
213.0,-0.001959753543031316,0.0032119193217666694,-0.00023480029340709621
213.5,-0.0017134536112453002,0.003458219253552685,0.00010632362203135369
214.0,-0.001725173962089443,0.0034464989027085426,0.0001901583524436326
214.5,-0.0016944223330175444,0.003477250531780441,0.00031698229992500014
215.0,-0.0017459455853602631,0.003425727279437722,0.00036183937770711393
215.5,-0.0012365292706904448,0.00393514359410754,0.0009677401516478517
216.0,-0.0013374972940623652,0.0038341755707356202,0.0009631628366729137
216.5,-0.0015583528915280405,0.003613319973269945,0.0008384129282436119
217.0,-0.0012768139825256176,0.0038948588822723678,0.0012155884061691938
217.5,-0.0010572187167837803,0.004114454148014205,0.0015301746894720186
218.0,-0.0009543245157882492,0.004217348349009736,0.0017272460410497166
218.5,-0.0007318220968963437,0.004439850767901642,0.0020429519332715723
219.0,-0.0008353601856540146,0.00433631267914397,0.0020314926686023018
219.5,-0.0004390577556032735,0.004732615109194712,0.002518607416025036
220.0,-0.000707810584402064,0.004463862280395922,0.0023392678748978585
