wavelength,absorbance,absorbance_bk,residual_3gauss
117.0,0.9965412493732544,0.9960362991832323,0.0006968623804390894
117.5,0.977169490330472,0.9766645401404499,-0.010104047742158895
118.0,0.9782994592999207,0.9777945091098986,0.0007208855280980142
118.5,0.9675423512775329,0.9670374010875108,0.0007421245231830076
119.0,0.9532208987220384,0.9527159485320164,-0.0017635702861023006
119.5,0.946298864438604,0.945793914248582,0.004116225717761379
120.0,0.9302606873163904,0.9297557371263684,0.0018090743109238083
120.5,0.9175208766782531,0.917015926488231,0.00366684307075682
121.0,0.9022334707661444,0.9017285205761223,0.0037748796054579703
121.5,0.8886128772748612,0.8881079270848391,0.006272506083265572
122.0,0.8686189391170716,0.8681139889270495,0.003037677328472488
122.5,0.850130627414802,0.84962567722478,0.0018602088550321305
123.0,0.8321853995101415,0.8316804493201194,0.0016806223550500654
123.5,0.8118017643125565,0.8112968141225344,-0.000587832915094344
124.0,0.792035347184373,0.7915303969943509,-0.002003667150829669
124.5,0.7719300062424346,0.7714250560524125,-0.0036465618655325827
125.0,0.7535285549146944,0.7530236047246723,-0.003607111391710327
125.5,0.7341749317844394,0.7336699815944173,-0.0046850037710421955
126.0,0.7158701132852366,0.7153651630952146,-0.005033287795737418
126.5,0.6985884777550229,0.6980835275650008,-0.004841952559833107
127.0,0.6820111966088626,0.6815062464188405,-0.004604172897528014
127.5,0.6674095460548009,0.6669045958647788,-0.0032322532153185035
128.0,0.6541736959419641,0.653668745751942,-0.0015276392067078426
128.5,0.6409776296498056,0.6404726794597836,-0.0010142739207653628
129.0,0.63109307329934,0.6305881231093179,0.0013776405442579298
129.5,0.6216893254277536,0.6211843752377315,0.0026144127191127797
130.0,0.6138259135667014,0.6133209633766793,0.003555114786062963
130.5,0.6088578973579304,0.6083529471679083,0.0053611380641196416
131.0,0.60429625838926,0.603791308199238,0.0053614592428289365
131.5,0.601781397501088,0.6012764473110659,0.005031570323929868
132.0,0.6018814977861491,0.601376547596127,0.004797723577976587
132.5,0.6040130343006792,0.6035080841106572,0.003963624993691628
133.0,0.6086180331521713,0.6081130829621493,0.002893991356692438
133.5,0.6157682136382248,0.6152632634482027,0.0016248802075043978
134.0,0.6248126378548747,0.6243076876648527,-0.0004828384845541045
134.5,0.6363236601220492,0.6358187099320272,-0.0027923549117481183
135.0,0.6506464178663354,0.6501414676763133,-0.004837184801686489
135.5,0.66777430848065,0.667269358290628,-0.006442672008695416
136.0,0.6873746064133046,0.6868696562232826,-0.007698847250837693
136.5,0.7102754592169668,0.7097705090269447,-0.007473646351772278
137.0,0.735360419562576,0.734855469372554,-0.0065205268396067995
137.5,0.7629242269645515,0.7624192767745295,-0.004126904816032395
138.0,0.7916490997186064,0.7911441495285844,-0.0011442152523757354
138.2,0.8032364016375018,0.8027314514474797,9.836591981404741e-05
138.4,0.8145524300510506,0.8140474798610285,0.0010927305328010117
138.6,0.8260584884175192,0.8255535382274971,0.002334713382625808
138.8,0.8364425971803072,0.8359376469902852,0.002547379993658061
139.0,0.8472740893954404,0.8467691392054183,0.003335487338747778
139.2,0.8580216218789598,0.8575166716889377,0.004203353934385201
139.4,0.8677475143712883,0.8672425641812662,0.004249052378105689
139.6,0.877895767377288,0.877390817187266,0.004952275605869083
139.8,0.8865084215411203,0.8860034713510982,0.004390540394070719
140.0,0.8960879102150127,0.8955829600249906,0.005101380475011852
140.2,0.9039652689482045,0.9034603187581824,0.0044503937433546525
140.4,0.91152217177112,0.911017221581098,0.003853114219029563
140.6,0.918071510467104,0.9175665602770819,0.00265542578596234
140.8,0.9244092374569104,0.9239042872668883,0.0016852391930870514
141.0,0.9303523250330593,0.9298473748430373,0.0007902859480988234
141.2,0.9350859111337635,0.9345809609437414,-0.0008148997832110316
141.4,0.9401298375697316,0.9396248873797095,-0.0015826044076254764
141.6,0.9447814701220941,0.9442765199320721,-0.0021892728698524877
141.8,0.9488173344470237,0.9483123842570016,-0.0028340264156436756
142.0,0.9521050331588675,0.9516000829688455,-0.003626893757012195
142.2,0.9553160255746375,0.9548110753846154,-0.003876173112204895
142.4,0.9580376043063208,0.9575326541162987,-0.003976589870713698
142.6,0.9611725274796172,0.9606675772895952,-0.003009790025038095
142.8,0.9624293635770211,0.9619244133869991,-0.00325411127783104
143.0,0.9640536183109752,0.9635486681209532,-0.0024535613148006785
143.2,0.9642114593080064,0.9637065091179844,-0.002434186352240242
143.4,0.9640060263910972,0.9635010762010752,-0.002087841060468887
143.6,0.9636194926492954,0.9631145424592733,-0.0012301935678015186
143.8,0.9623898095739392,0.9618848593839171,-0.0005240311720456914
144.0,0.9602383099008807,0.9597333597108586,-5.1692048554485837e-05
144.2,0.9573204341433263,0.9568154839533043,0.0003356440683514039
144.4,0.953025068773,0.9525201185829779,1.7295180961607315e-05
144.6,0.9482248478568572,0.9477198976668352,-0.00014660096004970313
144.8,0.9437493925969171,0.9432444424068951,0.0006581931743955272
145.0,0.9375902030951347,0.9370852529051127,0.0004049680202423689
145.2,0.9320099989496323,0.9315050487596103,0.0013354903950802965
145.4,0.9252155922791256,0.9247106420891036,0.0016329814187364677
145.6,0.9177051900336916,0.9172002398436695,0.0017695460781423922
145.8,0.9104636792895904,0.9099587290995683,0.0027016082877756586
146.0,0.9012756913072754,0.9007707411172533,0.0021831471667599356
146.2,0.8924688609921789,0.8919639108021569,0.0025091508779361282
146.4,0.8835194581892474,0.8830145079992253,0.0031214639053830373
146.6,0.8731065363205861,0.872601586130564,0.0026631724428304304
146.8,0.8620543866644541,0.861549436474432,0.0019213150519460376
147.0,0.8515201431871043,0.8510151929970823,0.002014762043723972
147.2,0.8394181576012992,0.8389132074112772,0.0008188814672173139
147.4,0.8276872330600232,0.8271822828700012,0.00023307798573068972
147.6,0.815124210580867,0.814619260390845,-0.0009853037325634473
147.8,0.8029296957672718,0.8024247455772497,-0.0016749263466864228
148.0,0.7894504894394747,0.7889455392494527,-0.003527697410068531
148.2,0.7775992748932928,0.7770943247032708,-0.0036687478810718543
148.4,0.7661342082795172,0.7656292580894951,-0.0033765087821577833
148.6,0.7547940038151448,0.7542890536251228,-0.0029472982281660842
148.8,0.7439888465283971,0.7434838963383751,-0.0020040902403727356
149.0,0.732907487846803,0.732402537656781,-0.0013891142874329354
149.2,0.7222610696165509,0.7217561194265288,-0.0004197442838941301
149.4,0.711620903339823,0.7111159531498009,0.00044954542310071677
149.6,0.7009315065487287,0.7004265563587067,0.0011404547582217761
149.8,0.6903101150105558,0.6898051648205338,0.001750577927865593
150.0,0.6795961742993856,0.6790912241093635,0.0021030684333642746
150.5,0.6522786161996177,0.6517736660095956,0.0016541248774255557
151.0,0.626320327305516,0.625815377115494,0.0013609189767490593
151.5,0.6001290696406412,0.5996241194506191,-0.00033043869052129526
152.0,0.5757812249317419,0.5752762747417198,-0.0011752229171860806
152.5,0.5529666631600858,0.5524617129700637,-0.001206234105067594
153.0,0.5314676353740693,0.5309626851840472,-0.00028570649961967565
153.5,0.5098145373198009,0.5093095871297788,0.0005123694373661003
154.0,0.4868751425177743,0.48637019232775225,0.0004495502685788466
154.5,0.46315352056313014,0.4626485703731081,0.00038010524726167505
155.0,0.43838677624833405,0.437881826058312,0.00031032015607396213
155.5,0.41260320623818086,0.4120982560481588,0.00042729097986704545
156.0,0.38480320348751135,0.3842982532974893,-0.00023856534230165538
156.5,0.35617230315827986,0.3556673529682578,-0.000606217337301429
157.0,0.32769750579639406,0.327192555606372,7.943704949364694e-05
157.5,0.2982720747182075,0.29776712452818543,0.00037119506885158193
158.0,0.26884905817930915,0.2683441079892871,0.0008011568277881409
158.5,0.2398060376112789,0.2393010874212568,0.0012794886982178122
159.0,0.21071810824242532,0.21021315805240323,0.0009035848961644333
159.5,0.18246867143047624,0.18196372124045415,0.00010349546004048693
160.0,0.15591359607501873,0.15540864588499664,-0.0006640356529798996
160.5,0.13075234219679682,0.13024739200677474,-0.0020217063431720306
161.0,0.10873688062433248,0.10823193043431041,-0.0024484788517044748
161.5,0.08975489522857842,0.08924994503855635,-0.002190883339121194
162.0,0.07296238575940125,0.07245743556937918,-0.002133008021367108
162.5,0.059086480077608285,0.058581529887586206,-0.0015029513746020254
163.0,0.04758670503164036,0.04708175484161828,-0.000725612708528188
163.5,0.03905372655507828,0.0385487763650562,0.0009592295173858276
164.0,0.03142739892846661,0.030922448738444533,0.001697334806016075
164.5,0.02581273556878936,0.02530778537876728,0.0028191712837882348
165.0,0.02123270047341632,0.020727750283394242,0.0035779642009138787
165.5,0.017513380038370784,0.017008429848348706,0.004022941825214215
166.0,0.014643677069454911,0.014138726879432835,0.00435023763663123
166.5,0.01250420052219534,0.011999250332173264,0.004626068004396853
167.0,0.010662833457813017,0.01015788326779094,0.0045793406798520595
167.5,0.009306493381404319,0.008801543191382242,0.004532714222168251
168.0,0.00816904657469242,0.007664096384670342,0.004331506277661803
168.5,0.006845431400579542,0.006340481210557464,0.0036599505971930332
169.0,0.006112229645633494,0.005607279455611416,0.003364549877849385
169.5,0.0056382216709171176,0.00513327148089504,0.0031676621494593988
170.0,0.005165783125449349,0.004660832935427271,0.0028518848191369456
170.5,0.004680270697920824,0.004175320507898746,0.002432189901687554
171.0,0.004666177546929444,0.0041612273569073665,0.0024144824930498565
171.5,0.004559543332754824,0.004054593142732746,0.002250025284903533
172.0,0.0042896099526589584,0.0037846597626368813,0.0018787249958086055
172.5,0.004030499008259228,0.003525548818237151,0.0014820908277674905
173.0,0.0038960347642793018,0.0033910845742572246,0.0011790378758985776
173.5,0.0037358866665054935,0.0032309364764834163,0.0008227634002760955
174.0,0.0036316271055537616,0.0031266769155316844,0.0004973433145952248
174.5,0.0035108967523627167,0.0030059465623406396,0.0001322868275281052
175.0,0.003724425048216152,0.0032194748581940748,7.983470098961399e-05
175.5,0.0036358950903114303,0.003130944900289353,-0.0002949796602403974
176.0,0.0038585753945875145,0.0033536252045654373,-0.0003775610378112487
176.5,0.003698044603646635,0.003193094413624558,-0.0008609323917505123
177.0,0.0047426825682491645,0.004237732378227087,-0.00015517873939255387
177.5,0.00491558556366118,0.004410635373639103,-0.0003354889891411979
178.0,0.004921354588931357,0.004416404398909279,-0.0006953412874840994
178.5,0.005467293483746379,0.004962343293724301,-0.0005252915251132712
179.0,0.005742480789216855,0.005237530599194778,-0.0006338987150485325
179.5,0.005766754010872563,0.0052618038208504855,-0.0009987470293893455
180.0,0.006221912131075194,0.005716961941053116,-0.0009352575752407076
180.5,0.006492769161195867,0.00598781897117379,-0.0010556563068377768
181.0,0.006704632292097005,0.006199682102074927,-0.0012315238125469368
181.5,0.006971657671098648,0.00646670748107657,-0.0013454732588055523
182.0,0.007560700331204396,0.007055750141182319,-0.001127339229409741
182.5,0.007837166273328153,0.0073322160833060755,-0.00120836864535209
183.0,0.00772946649982983,0.007224516309807753,-0.0016568130617934697
183.5,0.008410783924254478,0.007905833734232402,-0.0012962104224929355
184.0,0.008615156393469835,0.008110206203447759,-0.001389351962970969
184.5,0.008849192312982786,0.00834424212296071,-0.0014266166411522948
185.0,0.009610576443465678,0.009105626253443602,-0.0009075143646209757
185.5,0.009762191487002034,0.009257241296979957,-0.0009666112303436149
186.0,0.010058836768160316,0.00955388657813824,-0.0008468543352416896
186.5,0.010427768823678832,0.009922818633656755,-0.0006190702691892501
187.0,0.01059184047913298,0.010086890289110903,-0.0005588597313986275
187.5,0.010451051223426709,0.009946101033404632,-0.0007650746027432452
188.0,0.010830590777084516,0.010325640587062439,-0.0004117948722774517
188.5,0.011508626017622368,0.011003675827600291,0.00027944527787279044
189.0,0.012654173404583887,0.01214922321456181,0.001477524714151121
189.5,0.012565515824283226,0.01206056563426115,0.0014801549809241605
190.0,0.01287395596042077,0.012369005770398693,0.0019176443592621075
190.5,0.01245877958123978,0.011953829391217703,0.0016678794780893378
191.0,0.012303074333637344,0.011798124143615267,0.0017121696060825031
191.5,0.012453502596925225,0.011948552406903148,0.0020950515359249786
192.0,0.012159441349968284,0.011654491159946207,0.0020634672154602393
192.5,0.01240482233891848,0.011899872148896403,0.0025986464814965783
193.0,0.011876852728272666,0.01137190253825059,0.0023848740449179066
193.5,0.011492075233449695,0.010987125043427618,0.0023355986209938756
194.0,0.01086198476638744,0.010357034576365363,0.0020591000957134713
194.5,0.010037353789158154,0.009532403599136078,0.001602865780158844
195.0,0.008942251895067043,0.008437301705044966,0.0008876601601483869
195.5,0.007985315833539052,0.007480365643516974,0.000318843306842306
196.0,0.007473607385357435,0.006968657195335358,0.00020027439356566212
196.5,0.006450958071349276,0.005946007881327198,-0.0004273015464432888
197.0,0.005502308363226697,0.004997358173204619,-0.0009818766692240542
197.5,0.004695035526833213,0.004190085336811135,-0.0013988196170155861
198.0,0.004220535230288454,0.003715585040266377,-0.00148926634760272
198.5,0.0031043940368576063,0.002599443846835529,-0.0022299256366717624
199.0,0.0030562052143600646,0.0025512550243379875,-0.0019132469272589736
199.5,0.0024868443580593883,0.001981894168037311,-0.0021301339877870086
200.0,0.0021001285053629734,0.0015951783153408962,-0.002178280522613691
200.5,0.002025467268872033,0.001520517078849956,-0.0019295189094354734
201.0,0.0014059847484565167,0.0009010345584344394,-0.002241702899959074
201.5,0.0011162868651636124,0.0006113366751415351,-0.0022409491538347777
202.0,0.0010931525136948944,0.0005882023236728171,-0.0019909586582374473
202.5,0.0012135570325229926,0.0007086068425009154,-0.0016150089403526983
203.0,0.0014772530139797128,0.0009723028239576355,-0.001113391434387886
203.5,0.0016340807400112179,0.0011291305499891405,-0.000736121098259342
204.0,0.0012948081512647463,0.000789857961242669,-0.0008721177675954081
204.5,0.001327670438775156,0.0008227202487530787,-0.0006526885829505367
205.0,0.0012509848832139671,0.0007460346931918899,-0.0005589353332124844
205.5,0.001392802660384393,0.0008878524703623158,-0.0002621245174904448
206.0,0.0014767565911758067,0.0009718064011537295,-3.7860728765328595e-05
206.5,0.0013037700294121024,0.0007988198393900251,-8.439781267297714e-05
207.0,0.001452804034153095,0.0009478538441310178,0.00017808963080698443
207.5,0.001290981581515284,0.0007860313914932066,0.00011761337609998647
208.0,0.0012979681537903442,0.0007930179637682669,0.0002147368220911394
208.5,0.001403495668868957,0.0008985454788468797,0.0004000854183405958
209.0,0.0017028133699888651,0.001197863179966788,0.0007697859234169663
209.5,0.0018076715024386955,0.0013027213124166184,0.0009364403083715855
210.0,0.0020663198026802847,0.0015613696126582075,0.0012491162746983517
210.5,0.001994875957838211,0.001489925767816134,0.001224709453483867
211.0,0.0020298395088374794,0.0015248893188154022,0.001300452640088923
211.5,0.001785221231862036,0.0012802710418399585,0.001091041959616144
212.0,0.001881911834327816,0.0013769616443057389,0.001218003646253357
212.5,0.001945300389233318,0.0014403501992112408,0.0013073116997637441
213.0,0.0009472848963893356,0.00044233470636725837,0.0003313986450295818
213.5,0.0014011837488121,0.0008962335587900228,0.0008040680130320198
214.0,0.0013460692131763033,0.000841119023154226,0.0007648294988269319
214.5,0.001170543767148262,0.0006655935771261848,0.0006026774956160232
215.0,0.0008484248228754758,0.00034347463285339856,0.0002917784023429092
215.5,0.0011105723234872485,0.0006056221334651712,0.00056330107322052
216.0,0.0008514277981948162,0.00034647760817273893,0.0003119588905896286
216.5,0.0009962995424715672,0.0004913493524494899,0.00046329803794428867
217.0,0.0011089837534055192,0.0006040335633834419,0.000581321727913802
217.5,0.0013046184079862598,0.0007996682179641825,0.0007813471114088177
218.0,0.0011002877927180647,0.0005953376026959874,0.0005806127276203518
218.5,0.0007970148891205601,0.00029206469909848285,0.0002802736624688102
219.0,0.0005049501900220773,0.0,-9.407036069978562e-06
219.5,0.0009429822066510067,0.00043803201662892944,0.00043055455692741644
220.0,0.0012167567063573346,0.0007118065163352574,0.0007058846881299588
