wavelength,absorbance,absorbance_bk,residual_3gauss
117.0,1.3314060515984167,1.325656630044232,0.06797800451597791
117.5,1.3266472109548344,1.3208977894006497,0.07332659698209998
118.0,1.3021636700044588,1.296414248450274,0.05984842105105215
118.5,1.2866428579280629,1.2808934363738782,0.056204276250308105
119.0,1.2634950386047459,1.2577456170505612,0.045775521947115205
119.5,1.2460312353475183,1.2402818137933336,0.04184194649467199
120.0,1.2303926951742383,1.2246432736200537,0.04051113033492704
120.5,1.2033158232737833,1.1975664017195986,0.028483220183394442
121.0,1.1813840134968316,1.175634591942647,0.02230252465199345
121.5,1.162816878210689,1.1570674566565042,0.020146417475563005
122.0,1.1366248065931928,1.130875385039008,0.010979459039762496
122.5,1.1115947630083103,1.1058453414541256,0.0035386291007368786
123.0,1.0889251363789787,1.083175714824794,-0.0010325362819803008
123.5,1.063827548380746,1.0580781268265613,-0.007583011111979232
124.0,1.0365960388019473,1.0308466172477626,-0.015886141347056792
124.5,1.014826163808008,1.0090767422538234,-0.018421769662440468
125.0,0.9888714704302743,0.9831220488760897,-0.024921152177775685
125.5,0.9658581366761331,0.9601087151219484,-0.02835385594868267
126.0,0.9438368374390291,0.9380874158848445,-0.030777537326672766
126.5,0.9219756743488704,0.9162262527946857,-0.03314670183961754
127.0,0.900421960191895,0.8946725386377103,-0.03545256919774109
127.5,0.8812646019320662,0.8755151803778816,-0.035762186970687004
128.0,0.8635518519292867,0.8578024303751021,-0.03520188366565635
128.5,0.8478994522495038,0.8421500306953191,-0.033349870850927554
129.0,0.8332186785036663,0.8274692569494816,-0.03150830070841548
129.5,0.8208814306213051,0.8151320090671205,-0.02853742983027785
130.0,0.8094041313686213,0.8036547098144367,-0.02616992252858119
130.5,0.8003291795072732,0.7945797579530886,-0.023126350539201646
131.0,0.7929550821895904,0.7872056606354058,-0.02038059494626221
131.5,0.7874428533701883,0.7816934318160036,-0.018047440009000937
132.0,0.7854887958793522,0.7797393743251675,-0.014702184520542727
132.5,0.7855746985800077,0.779825277025823,-0.012121270035145515
133.0,0.7881969637824505,0.7824475422282658,-0.010042547760746978
133.5,0.7945537557723262,0.7888043342181416,-0.00746635113926053
134.0,0.8036199368282305,0.7978705152740458,-0.005567994990058112
134.5,0.8152054003887201,0.8094559788345355,-0.0046266083302349825
135.0,0.8306447379337079,0.8248953163795232,-0.0033230006688856895
135.5,0.8495494339225175,0.8438000123683328,-0.0019761021800062117
136.0,0.8723281710173939,0.8665787494632092,-1.3195784104191866e-05
136.5,0.898034931593104,0.8922855100389193,0.0018849230560022967
137.0,0.9275990145081408,0.9218495929539561,0.0050171878439302375
137.5,0.9591882329874873,0.9534388114333027,0.008024471671012168
138.0,0.99200132291234,0.9862519013581553,0.010676253072322672
138.2,1.006857408530274,1.0011079869760893,0.013170308728025493
138.4,1.0186400595648393,1.0128906380106546,0.012488164977178418
138.6,1.031969450014929,1.0262200284607443,0.013297148570019512
138.8,1.0450916278534923,1.0393422062993076,0.013891873698078427
139.0,1.0569541774101456,1.051204755855961,0.013269666597764962
139.2,1.0694031604523646,1.06365373889818,0.013327251644686733
139.4,1.0807172180228073,1.0749677964686226,0.012394582480434124
139.6,1.0921101064320335,1.0863606848778489,0.011737093277275124
139.8,1.1031921815100008,1.097442759955816,0.011016886164808781
140.0,1.113789314577576,1.1080398930233912,0.010111340404643565
140.2,1.1239730690477536,1.118223647493569,0.009142974538329574
140.4,1.1327392815335573,1.1269898599793726,0.007157707875848018
140.6,1.1423088352556552,1.1365594137014705,0.006425311763684771
140.8,1.1508912856015396,1.145141864047355,0.005202713264389258
141.0,1.1588695075344266,1.153120085980242,0.003918323835636395
141.2,1.165698070997898,1.1599486494437132,0.0020701021276092746
141.4,1.172824002565416,1.1670745810112313,0.0011460121746824647
141.6,1.1782821551646572,1.1725327336104725,-0.0007808981388761627
141.8,1.1848682206894268,1.179118799135242,-0.0008797604865029562
142.0,1.1902944633231636,1.184545041768979,-0.0014064105603524002
142.2,1.1953806377004335,1.1896312161462488,-0.0015127065429436648
142.4,1.2003725203364743,1.1946230987822897,-0.0009282103584347112
142.6,1.2037092973766523,1.1979598758224677,-0.0011929860026493877
142.8,1.2072433799910385,1.2014939584368538,-0.000437941165754685
143.0,1.2100922267026653,1.2043428051484806,0.0004668693780585098
143.2,1.2126320822131424,1.2068826606589578,0.0019058901562349906
143.4,1.2130964791444188,1.207347057590234,0.0021165092648938177
143.6,1.2132043529162624,1.2074549313620777,0.002817152101684872
143.8,1.2135021392707288,1.2077527177165441,0.004549395089888275
144.0,1.2119779980558896,1.206228576501705,0.0052922436442377485
144.2,1.2097102329309026,1.203960811376718,0.006110644281180022
144.4,1.2058058514074508,1.200056429853266,0.006094175114099931
144.6,1.20118258420359,1.1954331626494052,0.006139233106965181
144.8,1.1966514185322035,1.1909019969780188,0.007031771669850473
145.0,1.1917373476290352,1.1859879260748505,0.008268289423720265
145.2,1.1856518662059676,1.179902444651783,0.0090285979066691
145.4,1.1793262101458852,1.1735767885917006,0.01020936419740015
145.6,1.171521317859613,1.1657718963054284,0.010534403123739544
145.8,1.164000900578815,1.1582514790246303,0.01172810318630968
146.0,1.1552428321467239,1.1494934105925392,0.012227193251590496
146.2,1.1460773366589827,1.140327915104798,0.01281932452854262
146.4,1.1363074153025312,1.1305579937483465,0.01326390504720476
146.6,1.1258820547605743,1.1201326332063897,0.013465724631216425
146.8,1.1142795888137529,1.1085301672595682,0.012858737421602928
147.0,1.1018616052742845,1.0961121837200998,0.011760389373568936
147.2,1.0893046109794255,1.0835551894252409,0.01080369865405717
147.4,1.0762685125407248,1.07051909098654,0.009606141815979852
147.6,1.0621621880715175,1.0564127665173328,0.007535616193424355
147.8,1.0483527763587877,1.042603354804603,0.0059201003138984465
148.0,1.0338751976500244,1.0281257760958398,0.0037575220025052314
148.2,1.019758436874059,1.0140090153198744,0.0020423607415418488
148.4,1.0065217255670675,1.0007723040128829,0.0012621166054599398
148.6,0.9933488665491411,0.9875994449949564,0.0005718862312164008
148.8,0.9809921586646558,0.9752427371104712,0.0006984999753584242
149.0,0.9688175498631729,0.9630681283089882,0.0009858458488631872
149.2,0.9567194576251357,0.950970036070951,0.0013098170714370694
149.4,0.9446750238078515,0.9389256022536668,0.0016326487210324148
149.6,0.931905085599895,0.9261556640457104,0.0011639241620272633
149.8,0.9194255036905349,0.9136760821363502,0.000911891972402934
150.0,0.9064032558782749,0.9006538343240902,3.950184030643289e-05
150.5,0.874306672577391,0.8685572510232064,-0.0020177749422098934
151.0,0.842020581242965,0.8362711596887803,-0.004666004398818591
151.5,0.8099667307775132,0.8042173092233286,-0.00729726547021059
152.0,0.7788261755606486,0.7730767540064639,-0.008965835990616733
152.5,0.7496582745120856,0.7439088529579009,-0.008304010847824839
153.0,0.7221057003135685,0.7163562787593838,-0.005354430801418952
153.5,0.6940413518806854,0.6882919303265007,-0.001959777202186763
154.0,0.6643503496425784,0.6586009280883938,0.0009864719591663462
154.5,0.6324830369217219,0.6267336153675372,0.003066846731936468
155.0,0.5989027970278699,0.5931533754736852,0.00477008017912206
155.5,0.5634107501132599,0.5576613285590752,0.005807921920204739
156.0,0.5258561327749691,0.5201067112207844,0.005827599688664642
156.5,0.48708611590177625,0.4813366943475916,0.00537299307732797
157.0,0.4479548783917557,0.442205456837571,0.004912844286380225
157.5,0.4084165833257016,0.4026671617715169,0.00395855321586952
158.0,0.3685630001027613,0.3628135785485766,0.002129841916734043
158.5,0.32878624343935275,0.3230368218851681,-0.0006537908430412909
159.0,0.28932753381392423,0.28357811225973956,-0.004597306338110396
159.5,0.25153897383993173,0.24578955228574706,-0.008745065825505438
160.0,0.2159900423909807,0.21024062083679604,-0.01285624413228914
160.5,0.18304550223181748,0.1772960806776328,-0.01681487766993911
161.0,0.15390926799550503,0.14815984644132035,-0.01958023299677547
161.5,0.12795840542838147,0.12220898387419679,-0.021852992488806205
162.0,0.10589043654602742,0.10014101499184275,-0.022933293355883053
162.5,0.08733998237784894,0.08159056082366425,-0.023113482941268165
163.0,0.07203564066758046,0.06628621911339577,-0.022533422675496434
163.5,0.05957234301948348,0.053822921465298795,-0.021421804842910327
164.0,0.04976761335156507,0.04401819179738039,-0.019753869328041927
164.5,0.04193010070163461,0.03618067914744993,-0.01799614634257672
165.0,0.03559090435740012,0.02984148280321544,-0.016386950045185866
165.5,0.031032406647099445,0.025282985092914764,-0.01441741347917867
166.0,0.02672885117765117,0.020979429623466488,-0.013398584905957231
166.5,0.024031204689239704,0.018281783135055022,-0.011782024198402723
167.0,0.021669197504070373,0.01591977594988569,-0.010661153090871501
167.5,0.019627096040076265,0.013877674485891583,-0.009897073800510053
168.0,0.018534739653790464,0.012785318099605782,-0.008727659456436911
168.5,0.01751622663537391,0.011766805081189227,-0.007917889784490366
169.0,0.016897419955649112,0.01114799840146443,-0.007050606598944818
169.5,0.01640656227147636,0.010657140717291676,-0.006323706616555215
170.0,0.015879164013411984,0.010129742459227303,-0.005842862016971956
170.5,0.01549674435249458,0.009747322798309898,-0.00538038475553553
171.0,0.015164290041088806,0.009414868486904125,-0.004995508292056958
171.5,0.01495646569488014,0.009207044140695458,-0.0045861407654915545
172.0,0.014792703587918697,0.009043282033734015,-0.00421200688278613
172.5,0.014469078887658813,0.00871965733347413,-0.004061285481794583
173.0,0.014511359363591636,0.008761937809406954,-0.003596343683576678
173.5,0.014265404935997228,0.008515983381812546,-0.0034623676673362185
174.0,0.014093444150914604,0.008344022596729922,-0.003290330655628433
174.5,0.014210941257148734,0.008461519702964052,-0.0028595495161793365
175.0,0.014333150865062774,0.008583729310878092,-0.0024506990358787936
175.5,0.014174324000560342,0.00842490244637566,-0.0023462892280895417
176.0,0.014459989706139008,0.008710568151954326,-0.0018181549521272163
176.5,0.014442685306411428,0.008693263752226746,-0.001611562755777009
177.0,0.014549572988476329,0.008800151434291647,-0.0012974797448511936
177.5,0.014970557622291814,0.009221136068107132,-0.0006843759654065959
178.0,0.01534892838465624,0.009599506830471559,-0.0001275274949343961
178.5,0.015529198253478352,0.00977977669929367,0.00021886134920253743
179.0,0.015747781570237096,0.009998360016052414,0.000592362284505021
179.5,0.016013020261378116,0.010263598707193435,0.0010023682068521361
180.0,0.016489154529118626,0.010739732974933944,0.001614077624434173
180.5,0.016716774160285795,0.010967352606101113,0.0019689562926332484
181.0,0.017011217919637733,0.01126179636545305,0.002383144683355041
181.5,0.01735869435916151,0.011609272804976829,0.0028435853800245457
182.0,0.017379791218514296,0.011630369664329614,0.002971538060127602
182.5,0.017583115770497235,0.011833694216312553,0.0032762247266656247
183.0,0.018092894410487392,0.01234347285630271,0.0038824336795695875
183.5,0.01860269360800545,0.01285327205382077,0.004484244464554633
184.0,0.01892175308308976,0.013172331528905078,0.00489136473628983
184.5,0.019678738292802804,0.013929316738618122,0.005732886167997879
185.0,0.02036107082772684,0.014611649273542159,0.0064966180377684715
185.5,0.020760043124869194,0.015010621570684512,0.00697420491884111
186.0,0.021213838888670487,0.015464417334485805,0.007504149880855756
186.5,0.021601007116018128,0.015851585561833446,0.007965291110133513
187.0,0.02217157059127864,0.016422149037093957,0.008607912825383663
187.5,0.022439125247141936,0.016689703692957254,0.008945846893999583
188.0,0.02304563593731616,0.01729621438313148,0.009621270703750481
188.5,0.023613889028282768,0.017864467474098086,0.010257161705458437
189.0,0.024053462856348087,0.018304041302163405,0.010763269680989626
189.5,0.024020752827595183,0.0182713312734105,0.010796143522011206
190.0,0.02407860512343397,0.01832918356924929,0.01091876648982601
190.5,0.02371661139854056,0.01796718984435588,0.010620852350453848
191.0,0.023376926011159788,0.017627504456975106,0.010344663932065932
191.5,0.02310970158984305,0.017360280035658367,0.010140449915721553
192.0,0.02314472556257202,0.01739530400838734,0.010238082491969808
192.5,0.022958559785666056,0.017209138231481375,0.010114198027053671
193.0,0.02243230957095553,0.01668288801677085,0.00964996704326044
193.5,0.02175268991423935,0.016003268360054668,0.009032161322217236
194.0,0.020857001146936463,0.015107579592751781,0.008198130358539932
194.5,0.01978585358865661,0.014036432034471927,0.007188526746778094
195.0,0.01806958769437125,0.012320166140186568,0.0055337270002757495
195.5,0.016916879095896873,0.011167457541712191,0.004442437206324961
196.0,0.015557416384514928,0.009807994830330246,0.0031443713688325565
196.5,0.014255456792845733,0.008506035238661051,0.00190380760075156
197.0,0.01322225216838653,0.007472830614201849,0.0009320145625674164
197.5,0.011689057240111407,0.0059396356859267255,-0.0005397398481292873
198.0,0.011012969655244407,0.005263548101059725,-0.0011543480754751707
198.5,0.010095743915653429,0.004346322361468747,-0.002010048619954203
199.0,0.009519085922476356,0.003769664368291674,-0.0025251311772422026
199.5,0.008807324197092185,0.0030579026429075028,-0.003175265130418466
200.0,0.008279498823476956,0.0025300772692922746,-0.0036414103479577896
200.5,0.007819219999189542,0.0020697984450048605,-0.004039958397898203
201.0,0.007358604276376598,0.0016091827221919163,-0.004438796094612624
201.5,0.007212962953654469,0.0014635413994697867,-0.004522616915311416
202.0,0.006828943867536344,0.0010795223133516618,-0.004844779035749658
202.5,0.006742752979905856,0.0009933314257211745,-0.004869083586927852
203.0,0.0066293266563011745,0.0008799051021164926,-0.00492060223645044
203.5,0.006724466834616802,0.0009750452804321201,-0.00476354189349273
204.0,0.00656135187237448,0.0008119303181897981,-0.004864733747903551
204.5,0.006482015990338077,0.0007325944361533951,-0.004882153724459806
205.0,0.006425132629447088,0.0006757110752624064,-0.004877139034193922
205.5,0.006489541007249579,0.0007401194530648973,-0.004750861535605865
206.0,0.006542696403020182,0.0007932748488355002,-0.004635877375656302
206.5,0.006504231616705418,0.0007548100625207358,-0.004612565464563719
207.0,0.0064558684012612,0.0007064468470765178,-0.004599215984082117
207.5,0.006473683459108857,0.000724261904924175,-0.0045197643378448275
208.0,0.006682667574773454,0.0009332460205887724,-0.0042492319710871924
208.5,0.006621985461122951,0.0008725639069382691,-0.004248466481765419
209.0,0.006568059091212385,0.0008186375370277032,-0.004241058250557606
209.5,0.006593039030298951,0.0008436174761142692,-0.004154869074720997
210.0,0.006706113467344545,0.0009566919131598628,-0.003980723106074116
210.5,0.006584920525724577,0.000835498971539895,-0.0040409945130115985
211.0,0.006392844785845113,0.000643423231660431,-0.004172310933513929
211.5,0.006406536355249299,0.0006571148010646169,-0.00409803438326956
212.0,0.006315823044428836,0.0005664014902441545,-0.004128349060423127
212.5,0.006234113885386444,0.0004846923312017623,-0.004149857809661442
213.0,0.0061067476147627356,0.0003573260605780537,-0.0042172336236068085
213.5,0.0060086125351917884,0.00025919098100710657,-0.0042555997676594305
214.0,0.005756957865590951,7.536311406269522e-06,-0.004447718417410045
214.5,0.005749421554184682,0.0,-0.004395962834668349
215.0,0.006024829798338946,0.00027540824415426407,-0.004061517837892873
215.5,0.0057809875946943645,3.156604050968265e-05,-0.004246589243411281
216.0,0.005838676255262984,8.925470107830173e-05,-0.0041304063416570036
216.5,0.005811864585359418,6.24430311747361e-05,-0.004099010712454234
217.0,0.005976481172391915,0.00022705961820723274,-0.003876483930239441
217.5,0.005879624071758378,0.00013020251757369598,-0.003915737872897632
218.0,0.005965076545285443,0.00021565499110076138,-0.003772998978707221
218.5,0.005940877433785567,0.00019145587960088528,-0.003740237869758148
219.0,0.005797931923446712,4.851036926203055e-05,-0.0038265585820750764
219.5,0.0059246755627943406,0.00017525400860965868,-0.00364353454565844
220.0,0.006040503044982129,0.0002910814907974473,-0.0034717797996447765
