wavelength,absorbance,absorbance_bk,residual_3gauss
117.0,0.79355932249006,0.7880704546319899,-0.0009981221789736594
117.5,0.7869856810881409,0.7814968132300708,-0.0009209275727334321
118.0,0.7770649914387554,0.7715761235806853,-0.0033505196169016926
118.5,0.7719495704229613,0.7664607025648912,-0.0001638069371792117
119.0,0.7636763523421125,0.7581874844840424,0.0006432895138359651
119.5,0.7518197695692365,0.7463309017111663,-0.0013913702982424336
120.0,0.7471389421799168,0.7416500743218467,0.004450922947085156
120.5,0.7327704616708318,0.7272815938127617,0.0012623510062470533
121.0,0.7206744963366282,0.715185628478558,0.0009544685980581447
121.5,0.7112527346605894,0.7057638668025192,0.003875894390134138
122.0,0.6977330455809545,0.6922441777228844,0.003196670029393389
122.5,0.6829777386735327,0.6774888708154626,0.0017161717564821988
123.0,0.6683057962260177,0.6628169283679476,0.000684951626275021
123.5,0.65311919426175,0.6476303264036799,-0.0005693652200428057
124.0,0.6384490014697591,0.632960133611689,-0.0010964237763888551
124.5,0.6244921291951611,0.6190032613370909,-0.0007868294388977404
125.0,0.6081570021144134,0.6026681342563432,-0.0028268890757291443
125.5,0.5929693962468118,0.5874805283887417,-0.00379312301380319
126.0,0.5795947144077488,0.5741058465496787,-0.0031302380218150017
126.5,0.5661018222499448,0.5606129543918746,-0.002887392197439609
127.0,0.5533635986799426,0.5478747308218724,-0.0023175468421073875
127.5,0.5408608540095868,0.5353719861515167,-0.002073197162770657
128.0,0.5296016266904215,0.5241127588323514,-0.0012864146000688415
128.5,0.5197437936412812,0.5142549257832111,5.47893953329881e-05
129.0,0.5106477500746612,0.5051588822165911,0.0011605847081802567
129.5,0.5023887353909536,0.49689986753288357,0.001953547939944622
130.0,0.4956860969487039,0.49019722909063385,0.003000313489120887
130.5,0.48972265209487287,0.4842337842368028,0.0033338237532117287
131.0,0.48501872715745137,0.4795298592993813,0.003330749149739909
131.5,0.4817135839189586,0.4762247160608885,0.0029967555969011017
132.0,0.4801045723931344,0.47461570453506435,0.002509897425162444
132.5,0.48079789256414657,0.4753090247060765,0.002375927525010979
133.0,0.48246058181002666,0.4769717139519566,0.001185019961609135
133.5,0.48625795983576486,0.4807690919776948,5.398579826421113e-05
134.0,0.4923885441061761,0.48689967624810604,-0.0008341826286242249
134.5,0.4997860844255647,0.49429721656749465,-0.002523989833617235
135.0,0.5095163035696073,0.5040274357115372,-0.003886965178982238
135.5,0.5214400160842435,0.5159511482261734,-0.004955589247520931
136.0,0.5359580102028343,0.5304691423447642,-0.005176450418302947
136.5,0.552673538325807,0.5471846704677369,-0.00474698811022134
137.0,0.5710626052323892,0.565573737374319,-0.003945809196800432
137.5,0.5917578723257876,0.5862690044677175,-0.0018508977145003103
138.0,0.6131064883517864,0.6076176204937163,0.00021450135012013316
138.2,0.6222455188697856,0.6167566510117155,0.0015296703407664536
138.4,0.6304517844860538,0.6249629166279836,0.0018855096580877584
138.6,0.6388046885623024,0.6333158207042323,0.00238674785043147
138.8,0.6470466103258884,0.6415577424678183,0.002801638874355805
139.0,0.6550868079439981,0.649597940085928,0.003065770752645691
139.2,0.6628816754649841,0.657392807606914,0.003162222618794175
139.4,0.6704627249479267,0.6649738570898566,0.0031494418221852394
139.6,0.6776305013422237,0.6721416334841536,0.002855049050519698
139.8,0.684862732573908,0.6793738647158378,0.0027838743616296346
140.0,0.6919001599454994,0.6864112920874292,0.0027036697066771254
140.2,0.6983562624636748,0.6928673946056046,0.002254712072819798
140.4,0.7045582211786159,0.6990693533205458,0.0017906438806429836
140.6,0.7103251899482679,0.7048363220901978,0.0011566176374968595
140.8,0.7157535263749554,0.7102646585168852,0.00047439921756831094
141.0,0.7208656092450979,0.7153767413870278,-0.00020894324270059883
141.2,0.7257329805042316,0.7202441126461615,-0.0007980261103147646
141.4,0.7302544161584794,0.7247655483004093,-0.0013712075674352509
141.6,0.7343059592840435,0.7288170914259734,-0.0020306815318941185
141.8,0.7387205395556425,0.7332316716975724,-0.0019229829891860284
142.0,0.7421778123841002,0.7366889445260301,-0.002349270829510419
142.2,0.7455685586991149,0.7400796908410447,-0.002401046309016275
142.4,0.7486078691230371,0.743119001264967,-0.002347082517309196
142.6,0.7510452968881518,0.7455564290300817,-0.00242337960110961
142.8,0.7535711741041203,0.7480823062460502,-0.0019269502164893648
143.0,0.7553441545333733,0.7498552866753032,-0.001688371110500575
143.2,0.7568161274108641,0.751327259552794,-0.0012469553375699105
143.4,0.7574387518997734,0.7519498840417033,-0.0011442945485463651
143.6,0.7577292307765168,0.7522403629184466,-0.0008585517819122979
143.8,0.757745266948872,0.7522563990908019,-0.0003295601764945477
144.0,0.7567621830955072,0.7512733152374371,-0.0002817463491552319
144.2,0.7556426995921014,0.7501538317340313,0.00014561767748721977
144.4,0.7536091621871996,0.7481202943291295,0.00017062638025866494
144.6,0.7506251905157485,0.7451363226576784,-0.00024961156182290445
144.8,0.7478765585769904,0.7423876907189203,6.192217812006628e-05
145.0,0.7447245670934478,0.7392356992353777,0.00045555942430675067
145.2,0.7407996512710654,0.7353107834129953,0.000548601923275549
145.4,0.7365918319436672,0.731102964085597,0.0008158388670992389
145.6,0.7318237953249122,0.726334927466842,0.0009627111451011583
145.8,0.7269477202592409,0.7214588524011708,0.0014222414688400686
146.0,0.7214845255518176,0.7159956576937475,0.0016944030281732525
146.2,0.7153390301722571,0.709850162314187,0.0016614193541437672
146.4,0.7090432757400348,0.7035544078819647,0.001831244459867043
146.6,0.702519024387627,0.6970301565295569,0.0021002357817975215
146.8,0.6950664448603772,0.689577577002307,0.0017420319524662498
147.0,0.6874871731828704,0.6819983053248003,0.0015308206378346068
147.2,0.6794700329678102,0.67398116510974,0.001127280139097353
147.4,0.6709746086614261,0.665485740803356,0.00046238639061224607
147.6,0.6620274183210929,0.6565385504630228,-0.00046617000033488676
147.8,0.6530195577059189,0.6475306898478488,-0.0012960871245721872
148.0,0.6440005393003617,0.6385116714422916,-0.002006354439189395
148.2,0.6351294561831028,0.6296405883250327,-0.0024658275824765985
148.4,0.6266755963815599,0.6211867285234898,-0.002432352688419681
148.6,0.6183214462470258,0.6128325783889557,-0.0022495048583466293
148.8,0.6103264624325135,0.6048375945744434,-0.0016825645606871609
149.0,0.6024592839952897,0.5969704161372196,-0.0009860639043797192
149.2,0.5947520644682782,0.5892631966102081,-0.0001492264709982427
149.4,0.5869620070453537,0.5814731391872836,0.0005657789068349572
149.6,0.5789184280793239,0.5734295602212538,0.0009710921472717571
149.8,0.5710890166660254,0.5656001488079553,0.0015195881300854586
150.0,0.5626972254979619,0.5572083576398917,0.0014224071528252669
150.5,0.5423871499127845,0.5368982820547143,0.0014273979371244305
151.0,0.5222331464963351,0.516744278638265,0.0009371390578198913
151.5,0.5019907514909275,0.49650188363285747,-0.00026501688602720286
152.0,0.4822704006529413,0.47678153279487123,-0.0014432042332986894
152.5,0.4639274667738228,0.4584385989157527,-0.0015355117632061543
153.0,0.4465678607714438,0.4410789929133737,-0.0006726432299625218
153.5,0.42907958778966954,0.42359071993159947,0.00032366365563679667
154.0,0.4105170644461272,0.4050281965880571,0.0007920613321905634
154.5,0.39057543148382784,0.38508656362575777,0.0006733462390515199
155.0,0.36966915007380535,0.3641802822157353,0.0005601592091554197
155.5,0.3476325468904363,0.34214367903236625,0.0003752890385768648
156.0,0.3242316352537563,0.31874276739568624,-0.0001298220289992491
156.5,0.29985670622305166,0.2943678383649816,-0.0006856180484390295
157.0,0.2757740992420419,0.2702852313839718,-0.0002455128847774768
157.5,0.25133093171459164,0.24584206385652158,0.00023519449377015778
158.0,0.22662832000829627,0.2211394521502262,0.00049604656554042
158.5,0.2024025749912945,0.19691370713322442,0.0008805268975354275
159.0,0.1782374749382243,0.17274860708015424,0.0005775699970432535
159.5,0.15508230427100883,0.14959343641293876,0.00016718877710322766
160.0,0.1331825208740682,0.12769365301599814,-0.00042545696230403274
160.5,0.1130547886193953,0.10756592076132523,-0.0009376461054552698
161.0,0.09489981369444739,0.08941094583637732,-0.0013458772177362965
161.5,0.07895195595111137,0.0734630880930413,-0.001512987674844632
162.0,0.06527485893416031,0.05978599107609024,-0.0013957169952136597
162.5,0.05380575040768433,0.04831688254961426,-0.0010088357492005831
163.0,0.04433208805974968,0.038843220201679615,-0.0004605958980520575
163.5,0.036759398665304685,0.03127053080723462,0.00030101849085224786
164.0,0.03067906101794209,0.025190193159872018,0.0010415565418021473
164.5,0.025862823680295986,0.02037395582222592,0.0017209757383847522
165.0,0.0218524652184814,0.016363597360411333,0.0020714823079087136
165.5,0.01906015237346536,0.01357128451539529,0.0026884568752011603
166.0,0.016241574567318583,0.010752706709248513,0.00249675096738629
166.5,0.014309029094743348,0.008820161236673278,0.002559441819566858
167.0,0.012754123171833534,0.007265255313763465,0.002498413936084503
167.5,0.011306395900746264,0.005817528042676195,0.0021526489109676013
168.0,0.010486344427421124,0.004997476569351055,0.0021322405638377153
168.5,0.009834635712883108,0.0043457678548130384,0.002049465463398825
169.0,0.009473409432770889,0.003984541574700819,0.002082420565987393
169.5,0.009152193390096857,0.0036633255320267875,0.002023435526772688
170.0,0.008973349647225539,0.0034844817891554695,0.0020069502427515224
170.5,0.008736315593042965,0.0032474477349728956,0.0018559748147062253
171.0,0.008571225170349616,0.003082357312279547,0.0017176379922451768
171.5,0.008577256550212561,0.003088388692142492,0.0017031431954175097
172.0,0.008673283154202542,0.003184415296132472,0.0017397178047551761
172.5,0.008342633461791902,0.0028537656037218324,0.0013163918487659391
173.0,0.00831293705163444,0.0028240691935643696,0.0011646249479318358
173.5,0.0084216114076077,0.0029327435495376305,0.001124380132123867
174.0,0.008250219889307306,0.0027613520312372367,0.0007789165216900065
174.5,0.008236914400861512,0.0027480465427914425,0.0005675506648124525
175.0,0.008354255193877955,0.0028653873358078855,0.00046370877045969015
175.5,0.00856199140033427,0.003073123542264201,0.0004278767867311158
176.0,0.008764371331360342,0.0032755034732902723,0.00036503491961317833
176.5,0.009035480703627655,0.003546612845557585,0.00035008746747265673
177.0,0.00898061186983579,0.00349174401176572,-1.0700074178955285e-05
177.5,0.009690467031899063,0.004201599173828993,0.0003745523176126313
178.0,0.009737810196743756,0.004248942338673687,8.002737847341655e-05
178.5,0.010231547796286145,0.004742679938216076,0.00021631591778644658
179.0,0.010146644331778918,0.004657776473708849,-0.00023965286532244383
179.5,0.010388060737248652,0.0048991928791785825,-0.0003806676135147619
180.0,0.01058410888193776,0.005095241023867691,-0.0005758837185701957
180.5,0.010946649155698719,0.005457781297628649,-0.0006106376707614601
181.0,0.011145817885172231,0.005656950027102162,-0.0008117398418728142
181.5,0.01140175411198741,0.005912886253917341,-0.0009557758479462478
182.0,0.011620037373836156,0.006131169515766087,-0.001133704405456644
182.5,0.01187372211320066,0.006384854255130591,-0.0012688654505895172
183.0,0.01227598798682376,0.006787120128753691,-0.0012443784639544417
183.5,0.01249214802095448,0.00700328016288441,-0.001391188088272221
184.0,0.012918101034016643,0.007429233175946574,-0.0013096694760747207
184.5,0.013571765181261436,0.008082897323191366,-0.0009782552176140769
185.0,0.013950513518143644,0.008461645660073574,-0.0008960615323927237
185.5,0.014284138792657716,0.008795270934587646,-0.0008299850066882213
186.0,0.01456057333895712,0.00907170548088705,-0.0007890424528856788
186.5,0.014940864085589112,0.009451996227519043,-0.0006094523281294072
187.0,0.015477633909489056,0.009988766051418987,-0.0002362249839738921
187.5,0.01571559092904671,0.01022672307097664,-0.00012269875778548288
188.0,0.016001123451900075,0.010512255593830006,7.901705732899812e-05
188.5,0.016571040383045348,0.011082172524975278,0.0006067532259010893
189.0,0.016639465600535055,0.011150597742464985,0.000675154902080451
189.5,0.01675523130734574,0.011266363449275672,0.000833064859372042
190.0,0.016907109195869453,0.011418241337799383,0.001068754747470764
190.5,0.01670738041076988,0.011218512552699811,0.0009935053667726578
191.0,0.016370350043307575,0.010881482185237506,0.0008201414104532685
191.5,0.01635619623270169,0.010867328374631622,0.0010069101887741766
192.0,0.01626099941231269,0.01077213155424262,0.001147549055075709
192.5,0.01638514843446959,0.010896280576399521,0.0015397372208362358
193.0,0.016057765216192333,0.010568897358122263,0.0015095723645480105
193.5,0.01579171553172378,0.010302847673653711,0.0015666382749878818
194.0,0.01535547136720145,0.009866603509131381,0.0014759274585876229
194.5,0.014920877902724828,0.009432010044654758,0.0014056702401323406
195.0,0.01386601572901136,0.008377147870941291,0.0007302594277410375
195.5,0.013276386544327112,0.007787518686257043,0.0005314972998702785
196.0,0.01203540002958676,0.0065465321715166905,-0.00031085878244462885
196.5,0.011435717882263524,0.005946850024193455,-0.0005076974190770297
197.0,0.010940973353122264,0.005452105495052194,-0.0005987836212352216
197.5,0.01015530077928483,0.004666432921214761,-0.0009831850783461717
198.0,0.009927225424840121,0.0044383575667700514,-0.0008153446233254147
198.5,0.009213175086322809,0.0037243072282527392,-0.0011415379128407038
199.0,0.008666089885389267,0.0031772220273191976,-0.0013112401538793277
199.5,0.008199131931874723,0.002710264073804654,-0.001413400233464486
200.0,0.007965072483138255,0.0024762046250681857,-0.0012970444657140882
200.5,0.007565594678473364,0.002076726820403294,-0.0013619715372912007
201.0,0.007153062816400617,0.0016641949583305476,-0.001456987187418796
201.5,0.007125640038320624,0.0016367721802505548,-0.0011847961350342049
202.0,0.006891289402526775,0.0014024215444567055,-0.0011380155472184034
202.5,0.006649912985037509,0.0011610451269674395,-0.001117054623454664
203.0,0.0066339922763294845,0.001145124418259415,-0.000889496200862257
203.5,0.006625697288690161,0.0011368294306200915,-0.0006730121318768456
204.0,0.006463517078298554,0.0009746492202284841,-0.0006287589146447073
204.5,0.006574230333480911,0.0010853624754108412,-0.00032943415019306673
205.0,0.006438229547226367,0.0009493616891562973,-0.0002939795940712054
205.5,0.00661799224520178,0.0011291243871317108,4.086330771865777e-05
206.0,0.00659132731583079,0.00110245945776072,0.00015377399796421187
206.5,0.006597827910639164,0.001108960052569094,0.000285281431119106
207.0,0.006486724581100275,0.0009978567230302052,0.00028559477099193904
207.5,0.0064796227785244576,0.000990754920454388,0.00037732056030909773
208.0,0.006764213034878142,0.0012753451768080723,0.0007491548600870102
208.5,0.0068111725567415295,0.00132230469867146,0.0008727691871022626
209.0,0.006755214418004999,0.0012663465599349298,0.0008838464556273247
209.5,0.0067498481522775535,0.001260980294207484,0.0009368306792985642
210.0,0.006655457668417352,0.0011665898103472823,0.0008929962564066656
210.5,0.00669931669229575,0.00121044883422568,0.0009804568975582378
211.0,0.006345996948054614,0.0008571290899845449,0.000664569231591451
211.5,0.006293648536792371,0.0008047806787223012,0.000644210347396159
212.0,0.005980791121298731,0.0004919232632286611,0.00035856766654800555
212.5,0.005864115682626886,0.0003752478245568165,0.0002649406938465632
213.0,0.006031907786653504,0.0005430399285834345,0.000452165367468109
213.5,0.005597882313428386,0.00010901445535831632,3.445075333823649e-05
214.0,0.005748251675765053,0.0002593838176949831,0.00019844991493263986
214.5,0.005598923962310385,0.00011005610424031503,6.046121493500188e-05
215.0,0.005696998393449108,0.0002081305353790388,0.00016792727706654446
215.5,0.005570213294062918,8.134543599284862e-05,4.888667213838004e-05
216.0,0.005535986544539676,4.711868646960649e-05,2.101817023781007e-05
216.5,0.005644315981284624,0.00015544812321455475,0.00013454493096722996
217.0,0.005618880439041967,0.00013001258097189786,0.00011333924393364337
217.5,0.00571014755281518,0.00022127969474511084,0.00020803387501270248
218.0,0.0056259099440826,0.00013704208601253084,0.0001265615969753197
218.5,0.0055598000324558975,7.093217438582794e-05,6.267311379094227e-05
219.0,0.005510229020222975,2.136116215290581e-05,1.4878906524230101e-05
219.5,0.005516309870256783,2.7442012186713362e-05,2.2374812126626985e-05
220.0,0.0054888678580700696,0.0,-3.945084823897309e-06
