wavelength,absorbance,absorbance_bk,residual_3gauss
117.0,0.651486525364638,0.6570422562452036,-0.0017291156660985685
117.5,0.6485060900545968,0.6540618209351624,-0.0023910738951119503
118.0,0.6436393796791999,0.6491951105597655,-0.0037277125235717357
118.5,0.6404958730569771,0.6460516039375427,-0.0021554981694169584
119.0,0.6376240357399636,0.6431797666205292,0.0008398067969190848
119.5,0.6326925986464205,0.6382483295269861,0.002884311625416802
120.0,0.6239909528138757,0.6295466836944413,0.002216278218601153
120.5,0.6164069286566564,0.621962659537222,0.003663776870499569
121.0,0.6068287805866844,0.61238451146725,0.004046531674001708
121.5,0.5968084922656524,0.602364223146218,0.0048390672895632925
122.0,0.5841812437487072,0.5897369746292728,0.003789998060857225
122.5,0.5707300511410703,0.5762857820216359,0.002586474163003616
123.0,0.5570993394480157,0.5626550703285813,0.0017675549121773937
123.5,0.5424530958457883,0.5480088267263539,0.000382172280576798
124.0,0.5270295272709966,0.5325852581515622,-0.0014563684640878094
124.5,0.5119812970442992,0.5175370279248648,-0.0027302454606903392
125.0,0.4966086765500975,0.5021644074306632,-0.004283959426413686
125.5,0.48170062339651526,0.4872563542770809,-0.005483097224888822
126.0,0.4678872334229864,0.47344296430355204,-0.005861518828011614
126.5,0.4554191314233056,0.46097486230387125,-0.005341343667914833
127.0,0.4424653423256469,0.44802107320621254,-0.005934132230952516
127.5,0.433055120692092,0.43861085157265767,-0.003797722356416955
128.0,0.4238715215490545,0.42942725242962015,-0.0024408780414995612
128.5,0.4159854200387724,0.4215411509193381,-0.0009869919888549905
129.0,0.4098155135610805,0.41537124444164614,0.0007887301887430365
129.5,0.40497118706377855,0.4105269179443442,0.0023055050896300666
130.0,0.40216606144247113,0.4077217923230368,0.004094442937149834
130.5,0.4006932682835223,0.40624899916408796,0.005278267348751864
131.0,0.40103218976061333,0.406587920641179,0.006182958841080888
131.5,0.4024120060569833,0.40796773693754895,0.005906565880837822
132.0,0.40562606364339887,0.41118179452396453,0.005139061872539097
132.5,0.41181110619477823,0.4173668370753439,0.0049471193148759585
133.0,0.41938433010226134,0.424940060982827,0.0037165599863238086
133.5,0.4288500826713136,0.43440581355187924,0.0019640691522979647
134.0,0.44095478742410527,0.4465105183046709,0.000496509144455537
134.5,0.45503457871908887,0.4605903095996545,-0.0012379431592103307
135.0,0.47106287122254953,0.4766186021031152,-0.0030998634170504857
135.5,0.4892580294423251,0.49481376032289076,-0.004649922888419755
136.0,0.5088892345535235,0.5144449654340891,-0.006343615197052066
136.5,0.530530398471008,0.5360861293515736,-0.007279676047520889
137.0,0.5543378283955757,0.5598935592761413,-0.006926593315280338
137.5,0.5799455291986316,0.5855012600791972,-0.005233351610879344
138.0,0.6063865427730065,0.6119422736535721,-0.0027159669423483246
138.5,0.6328697448414105,0.638425475721976,0.0003097347237022152
139.0,0.6586863797931729,0.6642421106737385,0.003623581284757038
139.5,0.6819424085440233,0.6874981394245889,0.005821116704630591
140.0,0.7022644241359226,0.7078201550164882,0.0070063639746233974
140.5,0.7181911015039742,0.7237468323845399,0.0061696577874046366
141.0,0.7300507508578643,0.7356064817384299,0.004051559872252253
141.5,0.7378509651599762,0.7434066960405418,0.0010193172354603375
142.0,0.7425283370007609,0.7480840678813265,-0.0016956796536693464
142.5,0.7447667323000918,0.7503224631806574,-0.003190470451972627
143.0,0.7447193529714291,0.7502750838519947,-0.0031774292242091606
143.5,0.7415042012361611,0.7470599321167267,-0.002495439194846738
144.0,0.7349233827671149,0.7404791136476805,-0.0013944839039929935
144.5,0.7245635719454857,0.7301193028260513,-0.00043595629473780484
145.0,0.7108793071066657,0.7164350379872313,0.0005933001639280011
145.5,0.6939059519444285,0.6994616828249941,0.001400292888846355
146.0,0.6740599775656608,0.6796157084462264,0.0019963062559127387
146.5,0.6513796284454432,0.6569353593260088,0.0019514926613720673
147.0,0.6263318413353289,0.6318875722158945,0.0012192783555941
147.5,0.5988570443552561,0.6044127752358217,-0.000798250355857899
148.0,0.5711118683943154,0.576667599274881,-0.0024846898720557453
148.5,0.5446425444531239,0.5501982753336895,-0.002811656524158823
149.0,0.5201273113722377,0.5256830422528033,-0.0015721173949312384
149.5,0.4963871398034661,0.5019428706840318,-0.00034696278774493106
150.0,0.47349773614939167,0.4790534670299573,0.0006264591826466437
150.5,0.4515367702717012,0.45709250115226685,0.0012161193394015224
151.0,0.4304199228041608,0.43597565368472646,0.0012395125363564574
151.5,0.40997275006025047,0.4155284809408161,0.0005361935145078434
152.0,0.39074805420293174,0.3963037850834974,-0.0002222017398084697
152.5,0.37335778735982056,0.3789135182403862,-0.00021525368791347477
153.0,0.3570268136985832,0.36258254457914885,5.788091113911875e-05
153.5,0.3413395853986631,0.34689531627922876,0.0004977767395433763
154.0,0.32545260893189726,0.3310083398124629,0.0005868810798957957
154.5,0.3089712827553552,0.31452701363592084,0.00023575629896249728
155.0,0.2921940441837128,0.29774977506427847,-8.419682843707754e-07
155.5,0.2745144543724067,0.28007018525297234,-0.0005448352903045239
156.0,0.25633585431454703,0.2618915851951127,-0.0008959384011473226
156.5,0.23766809173159953,0.24322382261216519,-0.0010422146668783439
157.0,0.2192444384801135,0.22480016936067915,-0.0003415603716084292
157.5,0.2001522139199144,0.20570794480048005,0.00011884279052731817
158.0,0.1809587396773872,0.18651447055795284,0.0006653250198115357
158.5,0.16170872900857555,0.16726445988914118,0.0010568203534263299
159.0,0.14250147814928607,0.1480572090298517,0.0010861887307978269
159.5,0.12350991793158635,0.129065648812152,0.0006233307326954929
160.0,0.1053866994575044,0.11094243033807004,4.300502259872718e-05
160.5,0.0885190946829759,0.09407482556354155,-0.0005026616001116424
161.0,0.0730355169695375,0.07859124785010314,-0.0010653278971088365
161.5,0.05929075165521278,0.06484648253577843,-0.0014086384012279435
162.0,0.04761219967923674,0.05316793055980238,-0.0012609868992943252
162.5,0.03746524818607167,0.043020979066637315,-0.0011540092287682172
163.0,0.02917651020184051,0.03473224108240615,-0.000706967665200689
163.5,0.022259907423007107,0.02781563830357275,-0.00031076650531014147
164.0,0.017028739081637614,0.022584469962203257,0.0004728443759651202
164.5,0.012885712683230896,0.01844144356379654,0.001190021775258461
165.0,0.009475544877153866,0.015031275757719509,0.0016370796081345267
165.5,0.0068508349232632975,0.01240656580382894,0.002017587985264373
166.0,0.004777655048398494,0.010333385928964137,0.0022411205023319253
166.5,0.003346471883602004,0.008902202764167647,0.0025293564708519234
167.0,0.0019502495337127969,0.00750598041427844,0.0023912723157158344
167.5,0.001190943323545069,0.006746674204110712,0.0025283709613251187
168.0,0.000569911820069801,0.006125642700635444,0.0025251374939949415
168.5,-0.00029972218686293093,0.005256008693702712,0.002062389763600594
169.0,-0.0005909623620128064,0.004964768518552837,0.0020209817013668177
169.5,-0.000842384959711272,0.004713345920854371,0.0019042625967900413
170.0,-0.0011846025595201592,0.004371128321045484,0.0016136001334918198
170.5,-0.0014547444940720539,0.004100986386493589,0.001335803744981776
171.0,-0.0018482306177976604,0.0037075002627679826,0.000893067663305902
171.5,-0.0020225962658241415,0.0035331346147415015,0.000640622037249581
172.0,-0.002259945301331116,0.003295785579234527,0.00030549952140370004
172.5,-0.0025698594048134053,0.0029858714757522377,-0.00011540040282355868
173.0,-0.002817452159994417,0.002738278720571226,-0.0004826118257492797
173.5,-0.002872656934498453,0.00268307394606719,-0.0006628229595984705
174.0,-0.002933009760336576,0.002622721120229067,-0.000851242907027725
174.5,-0.003138670981593681,0.002417059898971962,-0.0011863254753613464
175.0,-0.003277259578437518,0.002278471302128125,-0.0014543952560031235
175.5,-0.0032389104776520744,0.0023168204029135686,-0.0015445626311754177
176.0,-0.003370705213357326,0.002185025667208317,-0.001803059424585017
176.5,-0.003119966600169978,0.002435764280395665,-0.0016764716932349526
177.0,-0.0033162537493360345,0.0022394771312296085,-0.0019936955727665995
177.5,-0.0031136327823780446,0.0024420980981875984,-0.0019081840832496579
178.0,-0.002563941330034131,0.002991789550531512,-0.0014711977911887283
178.5,-0.0025934876612789515,0.0029622432192866915,-0.0016084966318546863
179.0,-0.0024459433636419567,0.0031097875169236863,-0.0015632294436399071
179.5,-0.0022495030540700383,0.0033062278264956047,-0.0014630931319110762
180.0,-0.0020131072372682095,0.0035426236432974335,-0.0013165565610642653
180.5,-0.0018135128876579528,0.00374221799290769,-0.0011999330907005836
181.0,-0.001662552907343097,0.0038931779732225462,-0.001124642479693733
181.5,-0.0017009338091787164,0.003854797071386927,-0.001231011226398614
182.0,-0.0012527723547080035,0.0043029585258576395,-0.0008428118874186982
182.5,-0.001260203956111834,0.0042955269244538095,-0.0009018740558419539
183.0,-0.0006923849455017663,0.004863345935063877,-0.0003770890117838722
183.5,-0.0008222851470132379,0.004733445733552405,-0.0005412044148921545
184.0,-0.0006824662938504874,0.004873264586715156,-0.0004266045320012327
184.5,-0.000413878147235886,0.005141852733329757,-0.0001741078201039515
185.0,-3.950260231331449e-05,0.005516228278252329,0.0001933878776563397
185.5,6.987036487041465e-05,0.005625601245436058,0.0003051286883599914
186.0,0.0001019262752802746,0.005657657155845918,0.00034878799664919344
186.5,0.0003368332197929913,0.005892564100358634,0.0006044736394384782
187.0,0.0005674497567463609,0.006123180637312004,0.0008649363380704017
187.5,0.0004080183423115884,0.005963749222877231,0.0007442640708954828
188.0,0.00019813432617651924,0.005753865206742162,0.0005818524082501957
188.5,0.00034414201048988573,0.005899872891055528,0.0007838022922453947
189.0,0.000838339441548529,0.006394070322114172,0.0013421269106140016
189.5,0.00043820025231939967,0.0059939311328850425,0.0010139759581517267
190.0,0.0009338397624128703,0.006489570642978513,0.0015891044639003765
190.5,0.000745622317886151,0.006301353198451794,0.001487483134536915
191.0,0.0009877923127233855,0.006543523193289029,0.0018229326209509974
191.5,0.0008901093584504428,0.006445840239016086,0.0018247621371907871
192.0,0.00036339777484978736,0.00591912865541543,0.0014033225656097043
192.5,0.0003873739596960103,0.005943104840261653,0.0015378375657239245
193.0,0.0002792383113347817,0.005834969191900425,0.001544999319498662
193.5,0.00014485961678630397,0.005700590497351947,0.0015301567845274061
194.0,4.87731096475568e-05,0.0056045039902132,0.001557317618619358
194.5,-0.00022839708045870367,0.005327333800106939,0.001406574457790669
195.0,-0.0002834072879500852,0.005272323592615558,0.0014806393083711994
195.5,-0.0007942357388428441,0.0047614951417227986,0.0011010057590306044
196.0,-0.0014216909234268632,0.00413403995713878,0.0006063441013237666
196.5,-0.001852116032055944,0.003703614848509699,0.0003098002098107129
197.0,-0.002499497865083439,0.003056233015482204,-0.00020311025706636803
197.5,-0.002714050007730941,0.002841680872834702,-0.0002830821504953016
198.0,-0.003175460500225089,0.002380270380340554,-0.0006102658702524123
198.5,-0.003431746021428816,0.002123984859136827,-0.0007331191842747122
199.0,-0.003885142861305799,0.001670588019259844,-0.0010542961172639517
199.5,-0.004098910440017259,0.0014568204405483844,-0.0011374486753207074
200.0,-0.004185553580124584,0.0013701773004410594,-0.0010954476184423171
200.5,-0.004624877579058476,0.000930853301507167,-0.001408436329665216
201.0,-0.004701024831702281,0.0008547060488633624,-0.0013608665287296747
201.5,-0.004757156878568413,0.0007985740019972303,-0.0012961797003851598
202.0,-0.0046954735637523256,0.0008602573168133175,-0.001116825913009426
202.5,-0.005139599568913705,0.0004161313116519379,-0.0014466502824054047
203.0,-0.005107852601317752,0.00044787827924789095,-0.0013041613448543153
203.5,-0.005225027220027125,0.0003307036605385179,-0.0013143153073205797
204.0,-0.005283920441100698,0.00027181043946494527,-0.0012700422975731175
204.5,-0.005154368688982718,0.0004013621915829246,-0.0010412841617716791
205.0,-0.005275410724056756,0.00028032015650888715,-0.0010671584186701531
205.5,-0.005428619063317349,0.00012711181724829428,-0.0011292908657322583
206.0,-0.005325999722890692,0.00022973115767495073,-0.0009397166437416229
206.5,-0.005555730880565643,0.0,-0.0010866203357553044
207.0,-0.005362521031668942,0.00019320984889670094,-0.0008146956515694762
207.5,-0.005326015898316286,0.00022971498224935716,-0.0007035539359978695
208.0,-0.005368353624900871,0.0001873772556647722,-0.0006752810127886292
208.5,-0.005406492736480837,0.00014923814408480604,-0.0006467668207322982
209.0,-0.005422854425119651,0.0001328764554459922,-0.0006003493880352137
209.5,-0.005472890154290565,8.28407262750781e-05,-0.0005913841173885647
210.0,-0.005334803913408524,0.0002209269671571189,-0.00039796769755222425
210.5,-0.0053337412124939325,0.0002219896680717105,-0.00034512871675579436
211.0,-0.005027135729392308,0.0005285951511733349,9.824122744452263e-06
211.5,-0.004977509218132082,0.0005782216624335614,0.00010450059179502601
212.0,-0.0050185250624274055,0.0005372058181382375,0.00010537394890215382
212.5,-0.00481976529693492,0.0007359655836307226,0.00034300256768923115
213.0,-0.004956282131255408,0.0005994487493102352,0.00024247714871445162
213.5,-0.005093143574993632,0.0004625873055720108,0.00013887392221047527
214.0,-0.0051437392085257674,0.0004119916720398756,0.00011894780047102583
214.5,-0.005122632759399131,0.0004330981211665124,0.00016827882192337447
215.0,-0.005084389883355488,0.0004713409972101554,0.00023244348855159375
215.5,-0.004936317040026971,0.0006194138405386717,0.0004042751060831753
216.0,-0.004854836790979671,0.000700894089585972,0.0005074877976512203
216.5,-0.004932091759072529,0.0006236391214931138,0.00045007194940212736
217.0,-0.00497151092119614,0.0005842199593695026,0.00042872741259865734
217.5,-0.004877423531646592,0.0006783073489190512,0.0005392491608810085
218.0,-0.004818053575759537,0.0007376773048061057,0.0006135324984057886
218.5,-0.005097156437784752,0.00045857444278089073,0.0003479361297749297
219.0,-0.005001204891629398,0.0005545259889362447,0.00045609597768001947
219.5,-0.0048211701869522346,0.0007345606936134084,0.0006471439701021796
220.0,-0.004874150562078263,0.0006815803184873799,0.0006040794597882767
