wavelength,absorbance,absorbance_bk,residual_3gauss
117.0,1.1780336804021088,1.178701769939007,-0.010104220817909404
117.5,1.1742218528456765,1.1748899423825747,1.485236742859719e-05
118.0,1.1469284215768698,1.147596511113768,-0.01257442701876843
118.5,1.139039865151707,1.1397079546886053,-0.005022121928008438
119.0,1.1312776459810931,1.1319457355179914,0.0033543358710454996
119.5,1.1141974790659055,1.1148655686028037,0.0030692643815004583
120.0,1.0972320754291744,1.0979001649660727,0.0035112621704416203
120.5,1.0847965483964817,1.0854646379333799,0.009048328750371759
121.0,1.068390378993604,1.0690584685305022,0.011129460244017064
121.5,1.0497424688085328,1.050410558345431,0.011429239008172942
122.0,1.0284083777570752,1.0290764672939734,0.009444506814678011
122.5,1.0075844485092311,1.0082525380461294,0.008307818485281504
123.0,0.9843873056641651,0.9850553952010632,0.0050661635561986
123.5,0.9654316338405167,0.9660997233774148,0.006257865533395024
124.0,0.9393732891340297,0.9400413786709279,0.0004547261857711371
124.5,0.9176593839157242,0.9183274734526223,-0.000988922807629855
125.0,0.8940588048487143,0.8947268943856124,-0.004406767606686346
125.5,0.8739900206370814,0.8746581101739795,-0.004493756979006558
126.0,0.8528173188500243,0.8534854083869224,-0.006010845329729175
126.5,0.8319724601156246,0.8326405496525228,-0.007664172279372217
127.0,0.8125653260288599,0.813233415565758,-0.008495015404393458
127.5,0.7963293187433204,0.7969974082802185,-0.006934658938798521
128.0,0.7803833425741118,0.7810514321110099,-0.006042239359647872
128.5,0.7642397652864814,0.7649078548233795,-0.006496055976976001
129.0,0.7521634378580707,0.7528315273949688,-0.004233153599376149
129.5,0.7409583776836963,0.7416264672205944,-0.002660465172662274
130.0,0.7314267153781692,0.7320948049150673,-0.001192822316722686
130.5,0.7231188040843615,0.7237868936212596,-0.0004988673164642021
131.0,0.7176347770305603,0.7183028665674585,0.000805452656548411
131.5,0.7130297672223592,0.7136978567592573,0.0005680128165498344
132.0,0.7116545042660257,0.7123225938029238,0.0009479119616380149
132.5,0.7129774102497403,0.7136454997866384,0.0012451474164095755
133.0,0.716754189303051,0.7174222788399491,0.001078372024488683
133.5,0.7227260717701927,0.7233941613070908,9.164221662616434e-05
134.0,0.7316963446146045,0.7323644341515027,-0.0009605261505348794
134.5,0.7432161159646864,0.7438842055015845,-0.002519217161580989
135.0,0.758706244256725,0.7593743337936231,-0.003091774074624909
135.5,0.7763492058735594,0.7770172954104575,-0.004353727551204223
136.0,0.798066242666939,0.7987343322038372,-0.004167102032250236
136.5,0.822496526206222,0.8231646157431202,-0.0035987978012713695
137.0,0.8501672942447251,0.8508353837816233,-0.0017504857510044491
137.5,0.8800861370971365,0.8807542266340346,0.0008308385628723602
138.0,0.9109767259814656,0.9116448155183637,0.003382703000722631
138.2,0.9229144240397498,0.9235825135766479,0.003831248219155481
138.4,0.9353601337327652,0.9360282232696633,0.004757796020170901
138.6,0.9473196758422712,0.9479877653791693,0.005208235568614272
138.8,0.9592179203592234,0.9598860098961215,0.005648420330081838
139.0,0.970193316442049,0.9708614059789471,0.005258528377741767
139.2,0.9819328001106957,0.9826008896475938,0.0057677898580971165
139.4,0.9935022198432198,0.994170309380118,0.006284722556742173
139.6,1.0036074763894287,1.004275565926327,0.005558072756961074
139.8,1.0137562602021974,1.0144243497390957,0.00513834577249539
140.0,1.0229553019289974,1.0236233914658956,0.004074842677717072
140.2,1.0323391082231,1.0330071977599982,0.0035441766721171497
140.4,1.0411575904351367,1.041825679972035,0.0028376779104175576
140.6,1.048180640291145,1.0488487298280433,0.0007657422636260236
140.8,1.055349120538966,1.0560172100758642,-0.0006914065643965905
141.0,1.062908644634916,1.0635767341718143,-0.0012501659725079328
141.2,1.0690834494684707,1.069751539005369,-0.002649908860826944
141.4,1.0747862373361048,1.075454326873003,-0.003943365625826978
141.6,1.080809573768704,1.0814776633056022,-0.0043054454367637
141.8,1.086437050591602,1.0871051401285001,-0.004422285656995983
142.0,1.0894042073858843,1.0900722969227825,-0.00653053444756968
142.2,1.0954379199344333,1.0961060094713315,-0.004878156150028401
142.4,1.0979442051939927,1.098612294730891,-0.006036808073994759
142.6,1.1020190450227905,1.1026871345596887,-0.004891184626479639
142.8,1.104277663941746,1.1049457534786442,-0.004809891685426004
143.0,1.1062684645752388,1.106936554112137,-0.004231645781745508
143.2,1.108459352172568,1.1091274417094663,-0.0026790649457029136
143.4,1.1091263843300982,1.1097944738669965,-0.0018701134196215108
143.6,1.107417973756026,1.1080860632929241,-0.0026539708016106722
143.8,1.1073596806191923,1.1080277701560906,-0.0010062875910268332
144.0,1.1050985601321708,1.105766649669069,-0.0007848601251465581
144.2,1.1022650318348388,1.102933121371737,-0.0003677572311617805
144.4,1.0978009843793344,1.0984690739162326,-0.0008251837574251297
144.6,1.0937388757937767,1.094406965330675,-0.00014032017032872268
144.8,1.0892012681152172,1.0898693576521155,0.0007903012862926495
145.0,1.0833173713796835,1.0839854609165818,0.0010734592216103955
145.2,1.0768446637894546,1.0775127533263529,0.0014410114307938926
145.4,1.0710720499955413,1.0717401395324395,0.003153230666310236
145.6,1.0637151000383032,1.0643831895752014,0.0038942498725045294
145.8,1.0553947134274393,1.0560628029643375,0.004250960512301338
146.0,1.0469181268420056,1.0475862163789038,0.004994281264131706
146.2,1.037725947826764,1.0383940373636622,0.005526477900762217
146.4,1.0278607259509567,1.028528815487855,0.0058500438817357114
146.6,1.0162682528026832,1.0169363423395814,0.004869330725971732
146.8,1.0049603863710457,1.005628475907944,0.00455372104097207
147.0,0.9940617909644807,0.9947298805013788,0.0049847323216266615
147.2,0.981067729558855,0.9817358190957531,0.0036141850334554526
147.4,0.9687570242333428,0.9694251137702409,0.0031775469395027844
147.6,0.9551121382280003,0.9557802277648985,0.0016144032170193334
147.8,0.9410443516974452,0.9417124412343433,-0.00020597980005754302
148.0,0.9282102391386736,0.9288783286755717,-0.0006677937178131144
148.2,0.9143964782752816,0.9150645678121797,-0.002023504830292455
148.4,0.9018395161395873,0.9025076056764855,-0.002073827462816924
148.6,0.8892394452262464,0.8899075347631445,-0.0021535057477665154
148.8,0.8775712942916154,0.8782393838285135,-0.001319703922817883
149.0,0.8653277338371513,0.8659958233740495,-0.0011090096555599338
149.2,0.8536833141432314,0.8543514036801295,-0.0003729368695282176
149.4,0.8421273070123358,0.842795396549234,0.0003551390264944221
149.6,0.8301840009865331,0.8308520905234312,0.0005804595707548099
149.8,0.8186830686384969,0.8193511581753951,0.00111739068013883
150.0,0.8062259411538046,0.8068940306907028,0.000555891550280796
150.5,0.7768532398600971,0.7775213293969953,0.0002596975689515002
151.0,0.746822789205857,0.7474908787427551,-0.0016340831190049254
151.5,0.7174899987871117,0.7181580883240098,-0.0036431666672663843
152.0,0.6891698626924702,0.6898379522293683,-0.005205411032844887
152.5,0.6628539239893554,0.6635220135262535,-0.004992747794525854
153.0,0.637725235288783,0.6383933248256811,-0.0034348438091899025
153.5,0.6122241576541972,0.6128922471910954,-0.0016962249021577058
154.0,0.5853711580242985,0.5860392475611966,-0.00039673971247511375
154.5,0.5570045498314754,0.5576726393683735,0.0005866550402906512
155.0,0.5273905514788111,0.5280586410157092,0.0016978919187221608
155.5,0.4956873989757109,0.496355488512609,0.0021442658574568063
156.0,0.462234411976683,0.46290250151358114,0.002176128203673189
156.5,0.42752224148744095,0.42819033102433907,0.002060565298644401
157.0,0.3927129505899352,0.39338104012683334,0.0026169044832108357
157.5,0.3583120605994039,0.358980150136302,0.003914164159202704
158.0,0.32314839493731123,0.32381648447420935,0.004283340358402665
158.5,0.28694810743163024,0.28761619696852836,0.002927438264422877
159.0,0.25209516852954095,0.25276325806643907,0.001717935408063087
159.5,0.21882366249918753,0.21949175203608567,0.0004197470334592057
160.0,0.18656585090661687,0.18723394044351502,-0.0019339889367021301
160.5,0.15753259966528435,0.1582006892021825,-0.003442474615315716
161.0,0.13166692472747749,0.13233501426437563,-0.004373201815937783
161.5,0.10883708762903836,0.1095051771659365,-0.004966714476954959
162.0,0.0894167647535527,0.09008485429045084,-0.004861721959925597
162.5,0.0730456206391412,0.07371371017603934,-0.004345717766901264
163.0,0.05937208016353736,0.06004016970043549,-0.003627470272087041
163.5,0.04851992421483749,0.04918801375173562,-0.002387849354097679
164.0,0.03909183875639762,0.039759928293295756,-0.0017940898177661868
164.5,0.03246395033222956,0.033132039869127695,-0.00022199019217173516
165.0,0.026672662335799912,0.02734075187269805,0.000616342586885768
165.5,0.022355097716898312,0.02302318725379645,0.0016011623972425476
166.0,0.018421367229774145,0.019089456766672282,0.0018686455845233207
166.5,0.016000407213564997,0.016668496750463134,0.00275101888932075
167.0,0.013702480518511272,0.014370570055409409,0.00303603413967091
167.5,0.011304127808954102,0.01197221734585224,0.002651112963401073
168.0,0.009368098829993983,0.01003618836689212,0.0022841611734514926
168.5,0.008250218498410334,0.008918308035308471,0.0023924810532761284
169.0,0.007759186545797578,0.008427276082695714,0.0028653065022737614
169.5,0.007685403580056224,0.008353493116954361,0.003555662569106428
170.0,0.006936001528965305,0.007604091065863443,0.003418430395332829
170.5,0.006523027913446477,0.007191117450344614,0.0035013628120075515
171.0,0.005619167175154875,0.006287256712053013,0.003003311550459259
171.5,0.004696684056200571,0.005364773593098708,0.002415295036673493
172.0,0.004220070351252034,0.004888159888150171,0.002214881129584675
172.5,0.004095878075812581,0.004763967612710718,0.002317393790249507
173.0,0.003923035651946659,0.004591125188844796,0.0023272854390572013
173.5,0.003632093777836045,0.004300183314734182,0.0021781754532991756
174.0,0.003092877003112308,0.0037609665400104453,0.0017410857783174707
174.5,0.002739952305236357,0.003408041842134494,0.0014503363334097156
175.0,0.003271684156471583,0.00393977369336972,0.0020029149484902965
175.5,0.0027786011933472582,0.0034466907302453955,0.0014870850139572056
176.0,0.003243619239767948,0.003911708776666085,0.0018828064296123686
176.5,0.0033720725985363995,0.004040162135434537,0.001891945832025428
177.0,0.0033498034034843928,0.00401789294038253,0.0016965438552244603
177.5,0.0033355871073080063,0.004003676644206144,0.0014514300282782865
178.0,0.0037340078613426727,0.00440209739824081,0.0015573067257728863
178.5,0.004002218785475145,0.004670308322373282,0.001467740398367428
179.0,0.004145503978071583,0.00481359351496972,0.001184976068286262
179.5,0.005078761282532372,0.005746850819430509,0.0016216894395191701
180.0,0.00498516686347689,0.005653256400375027,0.0009599295235100582
180.5,0.005486206159607734,0.006154295696505871,0.0008214251173450015
181.0,0.0061812757533323565,0.006849365290230494,0.0008074459196146669
181.5,0.006826813562349367,0.007494903099247504,0.0006781601414858063
182.0,0.006986496580413557,0.007654586117311694,3.0114191143732275e-06
182.5,0.007317355238548384,0.00798544477544652,-0.0005530521092616848
183.0,0.00834020921970912,0.009008298756607257,-0.00045910651768925857
183.5,0.00904243762856884,0.009710527165466977,-0.0007155378155506986
184.0,0.009571040384767745,0.010239129921665882,-0.0011611360550430085
184.5,0.010891942008656732,0.011560031545554869,-0.0008140499696362071
185.0,0.01221796679331906,0.012886056330217197,-0.0004441707390821937
185.5,0.012975287166923097,0.013643376703821234,-0.0006071344932630143
186.0,0.013405644295277028,0.014073733832175165,-0.0010426297260805687
186.5,0.013801712926130113,0.01446980246302825,-0.0014396170881723434
187.0,0.014114193463516304,0.014782283000414441,-0.0018298532045022044
187.5,0.014795319733748431,0.015463409270646569,-0.0017450011993614296
188.0,0.01632274647644136,0.0169908360133395,-0.0006933332447510779
188.5,0.016998745464683173,0.01766683500158131,-0.0003610657090976875
189.0,0.017880352538451796,0.018548442075349933,0.00031734375361008524
189.5,0.017421557132342162,0.0180896466692403,-0.00019894694720301587
190.0,0.017883497053644132,0.01855158659054227,0.0003528277251932284
190.5,0.01760574684927302,0.018273836386171156,0.0003102679794244889
191.0,0.016582981715971792,0.01725107125286993,-0.00033744381153823916
191.5,0.01691163943142929,0.017579728968327428,0.0004973426524119209
192.0,0.01745808293665666,0.0181261724735548,0.001669259775547445
192.5,0.017071315892370376,0.017739405429268513,0.0020130975595894773
193.0,0.016444108709236342,0.01711219824613448,0.002205472936915443
193.5,0.015800244078596173,0.01646833361549431,0.0024526731800876105
194.0,0.014542143741611635,0.015210233278509773,0.0021389044774461925
194.5,0.013544912414955992,0.01421300195185413,0.0021209510957603227
195.0,0.011398561416803628,0.012066650953701765,0.0009709792297859232
195.5,0.009437813464660176,0.010105903001558314,6.862271953594901e-06
196.0,0.007935087010951953,0.00860317654785009,-0.0005143938757706332
196.5,0.0064287924961933165,0.007096882033091454,-0.0010680069676062137
197.0,0.005374742018301053,0.00604283155519919,-0.0012097622360064198
197.5,0.00387503011217756,0.004543119649075697,-0.001846987715344325
198.0,0.003231354054353589,0.0038994435912517262,-0.0016851885529990032
198.5,0.0021897132815722484,0.0028578028184703856,-0.0019833918162068184
199.0,0.0012655723064754364,0.0019336618433735734,-0.0022291047792209286
199.5,0.0007830056137690876,0.0014510951506672247,-0.0020993530498800775
200.0,0.0011133830953228287,0.0017814726322209658,-0.0012222235231082938
200.5,2.4801365328912767e-05,0.00069289090222705,-0.0018276902275905739
201.0,0.000511959450970316,0.0011800489878684532,-0.0009180088488351902
201.5,-0.0002085107288766828,0.0004595788080214543,-0.0012726554733870007
202.0,-0.000453337107950234,0.00021475242894790315,-0.0012038757756853119
202.5,-0.0006680895368981371,0.0,-0.001152401543072658
203.0,-0.0006640250508511217,4.064486047015482e-06,-0.0009245019178335688
203.5,-0.00025695309592108166,0.0004111364409770555,-0.0003310222172554342
204.0,-0.0005271627214252521,0.00014092681547288506,-0.0004474508104227999
204.5,-0.00037038923532138905,0.0002977003015767481,-0.00016499203436244608
205.0,-9.186408063968493e-05,0.0005762254562584522,0.00021530901167447493
205.5,-0.0003664008520338243,0.0003016886848643128,2.243363669647585e-05
206.0,-8.7394288115224e-05,0.0005806952487829131,0.00036636788720565013
206.5,0.0001656585589945443,0.0008337480958926814,0.0006705785138659793
207.0,0.00014808381710357268,0.0008161733540017098,0.0006929510690796107
207.5,-0.000101954828686558,0.0005661347082115792,0.00047382823554884354
208.0,0.00011086339418924224,0.0007789529310873794,0.0007103609403963919
208.5,0.0003888754781257869,0.001056965015023924,0.001006403508989034
209.0,0.0002540188690681304,0.0009221084059662676,0.0008851357341022527
209.5,7.060097783712196e-05,0.0007386905147352592,0.0007118699885781021
210.0,0.000519820530034572,0.0011879100669327093,0.0011686084364771504
210.5,0.00045240824557683264,0.0011204977824749698,0.0011067168114034201
211.0,0.0007452878783634407,0.0014133774152615777,0.0014036151806457154
211.5,0.0001520609803954802,0.0008201505172936173,0.0008132887793557103
212.0,0.0010276743190361288,0.001695763855934266,0.0016909778176974132
212.5,0.00010590882660553228,0.0007739983635036694,0.0007706852975394295
213.0,0.0003486648583029479,0.001016754395201085,0.0010144778933040392
213.5,2.224687154736118e-05,0.0006903364084454983,0.0006887833588278324
214.0,-4.603450236863604e-05,0.000622055034529501,0.0006210028099821919
214.5,0.00014134844214537404,0.0008094379790435112,0.0008087296988057325
215.0,-3.597084143746286e-05,0.0006321186954606743,0.0006316447828163726
215.5,0.00020378847330075343,0.0008718780101988905,0.0008715625942956941
216.0,0.00029997973469874246,0.0009680692715968795,0.0009678602689524251
216.5,0.00048739777033933674,0.001155487307237474,0.001155349263707553
217.0,0.00119028138578632,0.0018583709226844573,0.0018582799013536553
217.5,0.0006971710361899081,0.0013652605730880452,0.0013652005406978225
218.0,0.0011684960524340887,0.0018365855893322258,0.0018365458877260903
218.5,0.0010600285581087083,0.0017281180950068455,0.0017280916893658202
219.0,0.0009879833515788125,0.0016560728884769498,0.0016560551655611527
219.5,0.0011961408244327188,0.001864230361330856,0.0018642183129500888
220.0,0.0008893281016396233,0.0015574176385377604,0.0015574093119811291
