wavelength,absorbance,absorbance_bk,residual_3gauss
117.0,0.8899776829414406,0.8873686813982445,-0.001513013440719524
117.5,0.8823777701567865,0.8797687686135904,-0.0036168147969751763
118.0,0.8795316826592867,0.8769226811160906,0.00026235665405782704
118.5,0.8682124108575096,0.8656034093143135,-0.003137478953260775
119.0,0.8601773233134602,0.8575683217702641,-0.002100544527300796
119.5,0.8577175580089226,0.8551085564657265,0.005615970596177466
120.0,0.8423104374442566,0.8397014359010605,0.0014341821733440119
120.5,0.8308530887818752,0.8282440872386791,0.002188952001668132
121.0,0.8175673179188612,0.8149583163756651,0.002032542065779186
121.5,0.807473838239745,0.8048648366965488,0.0059085798689755276
122.0,0.7917959266743754,0.7891869251311793,0.004955408052957133
122.5,0.7719293593145783,0.7693203577713822,0.00047567522742342216
123.0,0.7574760528709453,0.7548670513277492,0.001969604125293789
123.5,0.7410955945759814,0.7384865930327853,0.0019861356350344694
124.0,0.7203948590781983,0.7177858575350022,-0.001987829849385725
124.5,0.7025120627859539,0.6999030612427578,-0.002943712807070731
125.0,0.6850309835507782,0.6824219820075821,-0.0034372903549207967
125.5,0.6659561249996753,0.6633471234564792,-0.005613661715584528
126.0,0.6498446766314471,0.647235675088251,-0.005075238517295855
126.5,0.633747068172047,0.6311380666288509,-0.0049409014281450725
127.0,0.6186464513350917,0.6160374497918956,-0.004405925545156175
127.5,0.604470896652626,0.6018618951094299,-0.0037288205521602835
128.0,0.5923858053833229,0.5897768038401268,-0.0019375207124339155
128.5,0.5815150653360168,0.5789060637928207,-0.00010633630212997236
129.0,0.5706253619216692,0.5680163603784731,0.0003307944455055445
129.5,0.562246152407971,0.559637150864775,0.0017032955476775635
130.0,0.5565004141353873,0.5538914125921912,0.003938310978758741
130.5,0.551268375111425,0.5486593735682289,0.004728627732995427
131.0,0.5479327515566447,0.5453237500134486,0.005282648540149926
131.5,0.5460639000588633,0.5434548985156672,0.005014748205801944
132.0,0.5467069461317919,0.5440979445885958,0.0048379658736238396
132.5,0.5493146041898558,0.5467056026466597,0.004102602180011239
133.0,0.5541078170952921,0.551498815552096,0.0029626681644283615
133.5,0.5612137851599455,0.5586047836167494,0.0015195428382525078
134.0,0.5708216549954828,0.5682126534522867,-1.7128891856454942e-05
134.5,0.5830889350562892,0.5804799335130931,-0.001418487168233007
135.0,0.5969360433199842,0.5943270417767881,-0.003638314457534597
135.5,0.6135703764658471,0.610961374922651,-0.005286567237576367
136.0,0.6328177343191679,0.6302087327759718,-0.006296986793646764
136.5,0.6544638035612087,0.6518548020180126,-0.006586290666706018
137.0,0.6787726456015328,0.6761636440583367,-0.005538158970720852
137.5,0.7053169703766092,0.7027079688334131,-0.0031773343997063552
138.0,0.7327257539596549,0.7301167524164588,-0.00042831034291612724
138.5,0.7601254710886192,0.7575164695454231,0.0023177065410266984
139.0,0.7875010725586382,0.7848920710154421,0.005553809388174957
139.5,0.8106928068243378,0.8080838052811417,0.005642675618326098
140.0,0.8322924558062376,0.8296834542630415,0.0056999603342996474
140.5,0.8500623514266534,0.8474533498834573,0.003999495188845237
141.0,0.8642653992181819,0.8616563976749858,0.0012889010132310919
141.5,0.8753331273178065,0.8727241257746104,-0.0015569447919475676
142.0,0.8844540976652627,0.8818450961220666,-0.0029617958681328327
142.5,0.8910617026469208,0.8884527011037247,-0.003173779387295017
143.0,0.8944681938497603,0.8918591923065642,-0.0026436499793962565
143.5,0.8946370092007686,0.8920280076575725,-0.001262972251316663
144.0,0.8904445263452302,0.8878355248020341,-0.0001105660753164539
144.5,0.881079982269781,0.8784709807265849,-5.7915629176452654e-05
145.0,0.8688468245808326,0.8662378230376365,0.0010302956353875903
145.5,0.8527996852328894,0.8501906836896933,0.0019352794166325182
146.0,0.8331712287249327,0.8305622271817366,0.0025176340363947114
146.5,0.8099039290972813,0.8072949275540852,0.0022606894031907965
147.0,0.7836147783840862,0.7810057768408901,0.00125190873570602
147.5,0.7540578267451022,0.7514488252019061,-0.0013328583570606511
148.0,0.7238940809983558,0.7212850794551597,-0.003433264303054906
148.5,0.6945594009960758,0.6919503994528797,-0.004206877505057993
149.0,0.6686343221882726,0.6660253206450765,-0.0016277674114515417
149.5,0.6423447474075821,0.639735745864386,4.5580138999135045e-05
150.0,0.6167882515959935,0.6141792500527974,0.0015252420291819169
150.5,0.5915316183400914,0.5889226167968953,0.0021146229772528446
151.0,0.5664815111966388,0.5638725096534427,0.0015942700000884935
151.5,0.5422944137886004,0.5396854122454043,0.0006366719584576241
152.0,0.5191198771975297,0.5165108756543336,-0.00045731154308126243
152.5,0.4974006385196525,0.4947916369764564,-0.0009771082158845923
153.0,0.4775758311243443,0.4749668295811482,-0.00012892972003047953
153.5,0.45782561630898666,0.45521661476579056,0.0006705839400024671
154.0,0.43682592867209974,0.43421692712890364,0.0005057867807644612
154.5,0.4147757881486441,0.412166786605448,-5.471269969503645e-05
155.0,0.3922431344297396,0.3896341328865435,-0.00015239886994888874
155.5,0.3682866204791343,0.3656776189359382,-0.0005490829500822692
156.0,0.3430830235963486,0.3404740220531525,-0.0010199724795839082
156.5,0.3168789096866493,0.3142699081434532,-0.001408904989044113
157.0,0.2912041401439298,0.2885951386007337,-0.0004077507053647511
157.5,0.26477749085140734,0.26216848930821124,0.00036902813179812144
158.0,0.2383640270114124,0.23575502546821628,0.0012715964505370936
158.5,0.21194440773638165,0.20933540619318552,0.00182017443482424
159.0,0.1856302874348313,0.18302128589163516,0.0016586106271502254
159.5,0.1601150421865234,0.15750604064332727,0.0010411940729621871
160.0,0.13558652971234053,0.1329775281691444,-0.00022409769788800382
160.5,0.1133903114347332,0.11078130989153707,-0.001089986893707054
161.0,0.09350861058783824,0.09089960904464212,-0.001777930654277407
161.5,0.07656725839348291,0.07395825685028679,-0.0017676112374253872
162.0,0.06164494818792247,0.05903594664472635,-0.0019925602225821584
162.5,0.049426742856412936,0.04681774131321682,-0.0016981959536632382
163.0,0.039863795244718656,0.037254793701522536,-0.0007981122537960017
163.5,0.032238658665434315,0.029629657122238195,0.00017304241792533495
164.0,0.025996403138843584,0.023387401595647464,0.0008723840936752728
164.5,0.02144571209824441,0.01883671055504829,0.0018331423821744408
165.0,0.01754018212719638,0.014931180584000258,0.0022318963447658206
165.5,0.014567842036684209,0.011958840493488087,0.002567311394758843
166.0,0.012546571009718425,0.009937569466522304,0.0030481782092223473
166.5,0.010405644943738008,0.007796643400541887,0.00277073392206058
167.0,0.009622541973545824,0.0070135404303497025,0.003353903804088336
167.5,0.008389488176327715,0.005780486633131594,0.0031063305057419306
168.0,0.007815980954629145,0.0052069794114330235,0.0032307963767369318
168.5,0.0074989524722691644,0.004889950929073043,0.003397126045067543
169.0,0.006755903320856028,0.004146901777659907,0.00297842588798852
169.5,0.0062953778233716465,0.0036863762801755255,0.0027246780837503603
170.0,0.006454782701242627,0.0038457811580465064,0.003003454803424306
170.5,0.005901736351795027,0.0032927348085989056,0.002503805620420592
171.0,0.00637916208303594,0.003770160539839819,0.0029834771487966608
171.5,0.005821842477567213,0.003212840934371092,0.002387184073512797
172.0,0.0059853502729371386,0.0033763487297410175,0.0024768839755120054
172.5,0.00581424537818286,0.003205243834986739,0.002201000415582835
173.0,0.005789776740957818,0.0031807751977616966,0.0020428931676384245
173.5,0.0054733091128374035,0.0028643075696412825,0.0015648530599996322
174.0,0.005771939050662959,0.0031629375074668383,0.0016741359219713844
174.5,0.0050800875622119485,0.0024710860190158275,0.0007648641192241662
175.0,0.005728228440336238,0.003119226897140117,0.0011669866226640903
175.5,0.006438327185680949,0.0038293256424848277,0.0016018961387736113
176.0,0.005697385556771734,0.003088384013575613,0.000556115041756771
176.5,0.006102914117791896,0.003493912574595775,0.0006268836870067973
177.0,0.006433677169457416,0.0038246756262612946,0.000593002528609186
177.5,0.006969084037307251,0.00436008249411113,0.0007343059981632866
178.0,0.006897439686836834,0.0042884381436407125,0.0002399829392632528
178.5,0.0075070347597103616,0.00489803321651424,0.0003997240541185731
179.0,0.007855622472965377,0.005246620929769255,0.0002732432347583146
179.5,0.008017724955636305,0.005408723412440183,-6.23857427901357e-05
180.0,0.007783956298124658,0.005174954754928537,-0.0008133911958361833
180.5,0.008611160117397541,0.0060021585742014195,-0.0005191676585371572
181.0,0.009066441630035853,0.006457440086839732,-0.0006082632090729789
181.5,0.009597459196463463,0.006988457653267341,-0.0006281257016933764
182.0,0.009517174352711617,0.006908172809515495,-0.0012604090445607237
182.5,0.010198097236150299,0.007589095692954177,-0.0011268021776528504
183.0,0.010619991048252817,0.008010989505056696,-0.0012414160159486525
183.5,0.011880731632298568,0.009271730089102447,-0.0005000305147745774
184.0,0.011427496456330264,0.008818494913134143,-0.0014490251428786339
184.5,0.012627417373809152,0.01001841583061303,-0.0007148553581034587
185.0,0.012454746320593716,0.009845744777397594,-0.0013170223704367535
185.5,0.013135264083741664,0.010526262540545542,-0.0010238020923413142
186.0,0.01329452070370111,0.010685519160504989,-0.0012041404845603513
186.5,0.013930985406067636,0.011321983862871515,-0.000854633067740581
187.0,0.014046385468799296,0.011437383925603175,-0.000969304931927005
187.5,0.013963027403055503,0.011354025859859382,-0.0012223938533494627
188.0,0.014871588329642225,0.012262586786446103,-0.0004206450462955133
188.5,0.01525343929568229,0.012644437752486169,-8.105279516036276e-05
189.0,0.015669725614950523,0.013060724071754402,0.00035817841271950507
189.5,0.016139371782739945,0.013530370239543824,0.0009156222822426785
190.0,0.016034609181368065,0.013425607638171943,0.0009621674425190577
190.5,0.015979090045980356,0.013370088502784235,0.0011191656657469594
191.0,0.01565407996561493,0.013045078422418808,0.001064682630922631
191.5,0.015463356758445491,0.01285435521524937,0.0011984770124871674
192.0,0.01564647750626472,0.013037475963068599,0.0017553668719153138
192.5,0.015362674455098197,0.012753672911902075,0.0018892406300294751
193.0,0.015610301812144692,0.01300130026894857,0.0025926307510222117
193.5,0.015060985091552502,0.012451983548356381,0.0025309975908635873
194.0,0.014260390445102467,0.011651388901906345,0.002243636523761786
194.5,0.01326603161727977,0.010657030074083649,0.001781621718624813
195.0,0.011396590849925219,0.008787589306729097,0.0004572588460363125
195.5,0.010629689820635191,0.00802068827743907,0.00024197912866565953
196.0,0.009895055847366415,0.007286054304170293,5.961679623955971e-05
196.5,0.008478843107921158,0.0058698415647250365,-0.000809172880272953
197.0,0.007318458870920029,0.004709457327723907,-0.001432006890264942
197.5,0.006754715650410757,0.0041457141072146365,-0.0014725594263370282
198.0,0.005943453394959085,0.003334451851762964,-0.0017788948823859283
198.5,0.005081188313965104,0.0024721867707689833,-0.002157792168017461
199.0,0.004822618026836403,0.0022136164836402818,-0.001957229914801219
199.5,0.004599085445927259,0.001990083902731138,-0.0017479289019158117
200.0,0.003901294739659049,0.0012922931964629279,-0.002040656666432822
200.5,0.003949886772754271,0.0013408852295581498,-0.001615684891901139
201.0,0.003526365499252625,0.000917363956056504,-0.0016919058785987958
201.5,0.0035236011646660776,0.0009145996214699565,-0.0013763799142045398
202.0,0.0031516313264289943,0.0005426297832328733,-0.0014585902076774005
202.5,0.0036576180754920007,0.0010486165322958797,-0.0006905447620653303
203.0,0.0037217666836582663,0.0011127651404621453,-0.00039091788258695985
203.5,0.003543465474544425,0.000934463931348304,-0.0003589696651461003
204.0,0.0034097843849301857,0.0008007828417340647,-0.0003061044064576635
204.5,0.003073136797457783,0.00046413525426166214,-0.0004782620536404147
205.0,0.002609001543196121,0.0,-0.0007982447945584493
205.5,0.002991844880553959,0.0003828433373578382,-0.0002898382791048662
206.0,0.0033879020649354255,0.0007789005217393044,0.00021493256553919992
206.5,0.003356554548430298,0.000747553005234177,0.0002771493324647829
207.0,0.002906107007307065,0.0002971054641109439,-9.324831178424446e-05
207.5,0.0034202405622325073,0.0008112390190363862,0.0004889708060222737
208.0,0.0034392099755481053,0.0008302084323519843,0.0005655120762794686
208.5,0.0035210783376571735,0.0009120767944610524,0.0006957801112285362
209.0,0.0028639014377168284,0.00025489989452070734,7.905767270675854e-05
209.5,0.0033200595936606486,0.0007110580504645276,0.0005688356938300941
210.0,0.003237536802865242,0.0006285352596691208,0.000514093643021635
210.5,0.00305331786698911,0.0004443163237929891,0.00035270028649564574
211.0,0.0032765015693583884,0.0006675000261622674,0.0005945323647479813
211.5,0.0027698145760852956,0.00016081303288917456,0.00010299534009098963
212.0,0.002930781647410832,0.0003217801042147109,0.0002762013456143284
212.5,0.003438220028913132,0.0008292184857170109,0.0007934718122729204
213.0,0.003523931293556106,0.0009149297503599852,0.0008870377168155765
213.5,0.0034940660611371232,0.0008850645179410022,0.0008634126120830931
214.0,0.003454219421016729,0.000845217877820608,0.0008284960600323612
214.5,0.0030207559566068965,0.0004117544134107755,0.00039890621458217845
215.0,0.0031350333115754705,0.0005260317683793495,0.0005162103906076256
215.5,0.004151949113671084,0.001542947570474963,0.0015354783721884166
216.0,0.0033487597866209765,0.0007397582434248554,0.0007341069615836318
216.5,0.0032620333994222567,0.0006530318562261357,0.0006487779163201842
217.0,0.003597117301041528,0.000988115757845407,0.000984930041239846
217.5,0.003399189798348089,0.000790188255151968,0.0007878147272935229
218.0,0.003360206449537317,0.0007512049063411958,0.0007494455535554779
218.5,0.0034567236311106022,0.0008477220879144812,0.0008464246608955395
219.0,0.003408576048776108,0.0007995745055799871,0.0007986226208759898
219.5,0.003526239580320936,0.0009172380371248148,0.000916543241358054
220.0,0.003457835153138318,0.0008488336099421968,0.0008483290632251493
