wavelength,absorbance,absorbance_bk,residual_3gauss
117.0,0.4996073425648462,0.5075804521514174,-0.0005261553749738024
117.5,0.49505545688979846,0.5030285664763697,-0.0018381718471576214
118.0,0.49221341167439125,0.5001865212609625,-0.0007776215061171543
118.5,0.4859543562316141,0.49392746581818536,-0.0024903063966774663
119.0,0.4824653682834815,0.4904384778700528,-0.000811468901899981
119.5,0.4799585836039971,0.4879316931905684,0.00244527773600528
120.0,0.47337823310923066,0.48135134269580193,0.0021949097388626604
120.5,0.4663659444729915,0.4743390540595628,0.0020461974841648467
121.0,0.45974529157239,0.4677184011589613,0.0027861350891574266
121.5,0.4510485590451612,0.4590216686317325,0.0019065605623886928
122.0,0.4432646631910408,0.45123777277761207,0.002351907772924655
122.5,0.4330640583739074,0.44103716796047865,0.0007439215266087373
123.0,0.4240292880502424,0.4320023976368137,0.000611999630817206
123.5,0.41397128565238234,0.4219443952389536,-0.000290724945736176
124.0,0.40346011865290793,0.4114332282394792,-0.0014568570381500168
124.5,0.3941187790045621,0.4020918885911334,-0.0013311487876164763
125.0,0.38366458051706015,0.3916376901036314,-0.0022692655612944757
125.5,0.373941091599885,0.38191420118645625,-0.0025059561062784064
126.0,0.3644956829259496,0.37246879251252085,-0.002577519649543669
126.5,0.35550791353259537,0.36348102311916664,-0.0023933152338915797
127.0,0.34662153550283076,0.354594645089402,-0.0024034993571721563
127.5,0.33877740398897066,0.34675051357554193,-0.0017656700063442
128.0,0.3315767506560355,0.33954986024260675,-0.0009809241327339846
128.5,0.32479369009653986,0.3327667996831111,-0.0003804264088849707
129.0,0.31923546963621524,0.3272085792227865,0.0007360491673958358
129.5,0.3137936442973664,0.32176675388393766,0.0011528074383375109
130.0,0.3093425498020371,0.3173156593886084,0.0016385338840043673
130.5,0.30621749951490423,0.3141906091014755,0.0024266343783262423
131.0,0.3038620010764127,0.31183511066298397,0.0028648920352544738
131.5,0.30246563209887894,0.3104387416854502,0.003056046764018383
132.0,0.3021463037958754,0.3101194133824467,0.003042974034825785
132.5,0.30205529819860233,0.3100284077851736,0.0019167768629097526
133.0,0.30404629210087214,0.3120194016874434,0.0014889135731531722
133.5,0.3070841159443227,0.315057225530894,0.0007030015381657151
134.0,0.31161898129784427,0.31959209088441554,1.1907818008194404e-05
134.5,0.31694610010617613,0.3249192096927474,-0.0012600835752072381
135.0,0.3238853426621852,0.3318584522487565,-0.0022355198602947435
135.5,0.3318542720996325,0.33982738168620374,-0.0034092437799545516
136.0,0.3414782671155704,0.34945137670214166,-0.004037493326661923
136.5,0.3529534094722251,0.36092651905879636,-0.0037750767466738777
137.0,0.36559295693994226,0.37356606652651353,-0.0031298967942058886
137.5,0.37915427373593974,0.387127383322511,-0.00213801849005274
138.0,0.3937898842675847,0.401762993854156,-0.0004156470311552085
138.2,0.39995330942241863,0.4079264190089899,0.0005420622499039407
138.4,0.40567238000933303,0.4136454895959043,0.001057435313389754
138.6,0.41152832948898765,0.4195014390755589,0.0017289465642507662
138.8,0.41715216164282326,0.42512527122939453,0.0022051230117848264
139.0,0.4218550269726084,0.4298281365591797,0.0018148554782542181
139.2,0.4269134988495992,0.4348866084361705,0.0018526064926579489
139.4,0.43172623913324026,0.43969934871981153,0.0017350048508671945
139.6,0.43656039438283767,0.44453350396940894,0.001747168249226494
139.8,0.44163694416012467,0.44961005374669594,0.00212797579449181
140.0,0.44546854013415615,0.4534416497207274,0.0014078294266264835
140.2,0.4502233988528397,0.45819650843941095,0.0017724674627472847
140.4,0.45383634722514943,0.4618094568117207,0.001173929668081497
140.6,0.4573876794151752,0.4653607890017465,0.0007093329335901566
140.8,0.46087664149036256,0.46884975107693383,0.0003942742968425783
141.0,0.4645646536817269,0.47253776326829816,0.0005059715730176273
141.2,0.4666581780242862,0.4746312876108575,-0.0007339502125642272
141.4,0.4697022705592727,0.477675380145844,-0.000765986972135424
141.6,0.4718196020799585,0.47979271166652976,-0.001453813851879704
141.8,0.4741272062372691,0.4821003158238404,-0.001667614398488615
142.0,0.4758065479938602,0.48377965758043145,-0.002214087132360265
142.2,0.4780855220756252,0.4860586316621965,-0.0018545193913815927
142.4,0.4796315294918428,0.48760463907841406,-0.001911779874844477
142.6,0.48110247752163854,0.4890755871082098,-0.0017193839786903142
142.8,0.482610852058298,0.4905839616448693,-0.001157482507851415
143.0,0.4830470087573261,0.49102011834389736,-0.001329626786119309
143.2,0.4834725086751108,0.4914456182616821,-0.0011694839329756124
143.4,0.48351485328645455,0.4914879628730258,-0.001046146866756914
143.6,0.48351874623396496,0.4914918558205362,-0.0006129111221354622
143.8,0.48353605376954384,0.4915091633561151,0.00018265404130629603
144.0,0.4828396891762301,0.49081279876280137,0.0006125660910452635
144.2,0.4816236379369531,0.4895967475235244,0.0008684385599417865
144.4,0.47971320908337106,0.48768631866994233,0.0007717252535916486
144.6,0.4776178846012014,0.4855909941877727,0.0008265717360791403
144.8,0.47536225904295254,0.4833353686295238,0.0010507667534463971
145.0,0.47224398473578755,0.4802170943223588,0.0007337094571492342
145.2,0.4691762413838895,0.4771493509704608,0.0007789116570218191
145.4,0.4657988094043677,0.47377191899093896,0.0008151148167675482
145.6,0.46275349249556263,0.4707266020821339,0.0014717675958401677
145.8,0.4586462443697458,0.4666193539563171,0.001341219091973045
146.0,0.45432908701892005,0.4623021966054913,0.0012607152781192732
146.2,0.4498487918704892,0.4578219014570605,0.001261170003617973
146.4,0.4453941167130589,0.45336722629963017,0.0015145033259386653
146.6,0.44022558609276463,0.4481986956793359,0.0012635346180421836
146.8,0.43490190300534853,0.4428750125919198,0.0010485178660490369
147.0,0.4293345851805118,0.4373076947670831,0.0007619118756265197
147.2,0.4229878627966532,0.43096097238322445,-0.0001515785309558204
147.4,0.41709754820951894,0.4250706577960902,-0.00047598068596138576
147.6,0.41076320952670053,0.4187363191132718,-0.0011317209172521658
147.8,0.4049095996219684,0.41288270920853964,-0.0012140297919071563
148.0,0.39889091527378334,0.4068640248603546,-0.001388512595231317
148.2,0.39298226263900954,0.4009553722255808,-0.0013995105349624004
148.4,0.38671464796528826,0.39468775755185953,-0.0017349356401253901
148.6,0.38035936114161767,0.38833247072818894,-0.0021417137831729605
148.8,0.3743142740113912,0.3822873835979625,-0.0022393160627037223
149.0,0.3695040624824257,0.37747717206899695,-0.001119371780023637
149.2,0.36426911744437346,0.37224222703094473,-0.0004566003409398611
149.4,0.3585904036746084,0.3665635132611797,-0.0002838052806656277
149.6,0.3535943914981776,0.3615675010847489,0.0005131919788036177
149.8,0.34817506966722145,0.3561481792537927,0.0008176847779486351
150.0,0.3421948572086228,0.3501679667951941,0.00048309579409011594
150.5,0.3294296305490556,0.3374027401356269,0.0014470530149410243
151.0,0.3158837312739184,0.32385684086048966,0.0010399932627679354
151.5,0.30300728605011207,0.31098039563668334,0.0007237788654221311
152.0,0.2903119192882102,0.2982850288747815,9.106319935520135e-05
152.5,0.27806615138308943,0.2860392609696607,-0.0004494984217583431
153.0,0.26721467871606386,0.27518778830263513,0.00023030659488487704
153.5,0.25576170194033626,0.26373481152690753,0.00034157837870169017
154.0,0.24399672256343327,0.2519698321500045,0.0003816579410847454
154.5,0.23162649321612616,0.2395996028026974,0.00024339319767846535
155.0,0.2184054767384055,0.22637858632497673,-0.00017500476208273663
155.5,0.20531885318351345,0.2132919627700847,0.00019667314886745446
156.0,0.19084844172748697,0.1988215513140582,-0.00014389018506844042
156.5,0.1759140748118056,0.18388718439837684,-0.00033366670018211697
157.0,0.1603907786528118,0.16836388823938303,-0.000623453985983069
157.5,0.14557769499943252,0.15355080458600376,0.00010122946338975147
158.0,0.1297833070234566,0.13775641661002785,-7.925360673147197e-05
158.5,0.11470130307321583,0.12267441265978708,0.0002759091610196329
159.0,0.09985978906050665,0.1078328986470779,0.00043710095167277807
159.5,0.08486214258836598,0.09283525217493724,-0.00023585556191563217
160.0,0.07116513854433401,0.07913824813090527,-0.0004992650375356122
160.5,0.05895674893940303,0.06692985852597429,-0.0003354879620603157
161.0,0.04749981443675087,0.05547292402332212,-0.0006017673999439768
161.5,0.03728781463694529,0.04526092422351654,-0.0008718485941123857
162.0,0.029273118308699903,0.037246227895271156,-0.00020958727231758234
162.5,0.0218405559165742,0.029813665503145452,-0.0002008679856541698
163.0,0.015534067778727323,0.023507177365298573,-0.0002349954928316418
163.5,0.01108505277184328,0.01905816235841453,0.0005142258089772499
164.0,0.007837018040491946,0.015810127627063197,0.0015034112567974406
164.5,0.004506970750740242,0.012480080337311492,0.0015718562369485302
165.0,0.0015237951870031104,0.009496904773574361,0.0012720317107904715
165.5,-0.0003769712042520666,0.007596138382319184,0.0014581105990530462
166.0,-0.0017180074298007572,0.0062551021567704935,0.0017166131051576244
166.5,-0.0026731062671503454,0.005300003319420906,0.001970718404989386
167.0,-0.0039641801576054255,0.004008929428965825,0.0015819478366535986
167.5,-0.004803803278317271,0.00316930630825398,0.0014074961721071665
168.0,-0.005232859114184266,0.002740250472386985,0.0014633186620218019
168.5,-0.005142889505668522,0.0028302200809027286,0.0019030699909057323
169.0,-0.006215553462008863,0.0017575561245623877,0.001080221959766451
169.5,-0.006858349549973188,0.0011147600365980625,0.0006139983915156437
170.0,-0.007202034265754979,0.0007710753208162715,0.00039354733029321395
170.5,-0.007240274633423277,0.0007328349531479737,0.00043971996630536893
171.0,-0.00730366004875264,0.0006694495378186107,0.0004322845287068709
171.5,-0.0071854494245210026,0.0007876601620502481,0.0005851865299594033
172.0,-0.007421567618927578,0.0005515419676436727,0.00036735187531912916
172.5,-0.0076074108789096545,0.0003656987076615962,0.00018649710648599758
173.0,-0.007851055498519572,0.00012205408805167871,-6.361730390623489e-05
173.5,-0.007817672599116225,0.00015543698745502585,-4.7262442351614007e-05
174.0,-0.007971030276618342,2.079309952909142e-06,-0.00022799764381061974
174.5,-0.00797310958657125,0.0,-0.0002681099119985412
175.0,-0.007655470277398297,0.0003176393091729535,1.485064019668544e-07
175.5,-0.007579621395881296,0.0003934881906899543,1.4285427684032235e-05
176.0,-0.0070531273977659965,0.0009199821888052542,0.0004655385961721956
176.5,-0.007357269669993411,0.0006158399165778396,7.127928377859312e-05
177.0,-0.007212038967997557,0.000761070618573694,0.00011008058039836948
177.5,-0.007530817532117459,0.0004422920544537917,-0.00033290402602349377
178.0,-0.006968954923402574,0.0010041546631686764,8.554686206752905e-05
178.5,-0.006649205047876567,0.0013239045386946834,0.0002413528377693821
179.0,-0.005978545794094824,0.001994563792476427,0.0007263834919303534
179.5,-0.005882696686746773,0.0020904128998244778,0.0006140155159632679
180.0,-0.005755362136216749,0.002217747450354502,0.0005099658655564972
180.5,-0.005600314673010524,0.0023727949135607263,0.00041028421294361534
181.0,-0.005147590249017254,0.0028255193375539963,0.0005852296305660417
181.5,-0.004544399804151779,0.0034287097824194715,0.0008884238933651888
182.0,-0.004757591747895386,0.003215517838675865,0.000354443076782323
182.5,-0.004932465472259472,0.003040644114311779,-0.00015995639130113315
183.0,-0.003908091497676041,0.00406501808889521,0.0005088636266558553
183.5,-0.004108710974142859,0.0038643986124283916,-5.997620813196977e-05
184.0,-0.003830814941438608,0.004142294645132643,-0.0001589753063624211
184.5,-0.003492089559600656,0.004481020026970595,-0.00020124693970903062
185.0,-0.002943979029345509,0.005029130557225742,-3.3155432904828294e-05
185.5,-0.003285433519239023,0.004687676067332228,-0.0007481633399887113
186.0,-0.0032027880004302576,0.004770321586140993,-0.0010268324667476033
186.5,-0.0023282876601203807,0.00564482192645087,-0.0004954910676081203
187.0,-0.002309608472678877,0.005663501113892374,-0.0007959112310102715
187.5,-0.0018845524431688376,0.006088557143402413,-0.0006601703473585168
188.0,-0.0017468876192741304,0.0062262219672971205,-0.0007766603236859801
188.5,-0.001472586399088655,0.006500523187482596,-0.0007164911404853955
189.0,-0.0004246364128935728,0.007548473173677678,0.0001615440436363979
189.5,-0.0001661481442858573,0.0078069614422853935,0.0002977249012021321
190.0,0.00022728660846562063,0.00820039619503687,0.0006189331533753163
190.5,1.0295924075991408e-05,0.007983405510647242,0.00038127069195711006
191.0,-0.00025591024206963504,0.007717199344501616,0.00014637166276666638
191.5,-0.0006129365333266084,0.0073601730532446424,-0.00012800840681413857
192.0,-0.0003098439462700884,0.007663265640301163,0.0003073874461677409
192.5,-0.00037146062381488825,0.007601648962756362,0.00042506380596706896
193.0,7.484526132923458e-06,0.007980594112704175,0.0010267287152532856
193.5,-0.0001930898329863469,0.007780019753584904,0.0010879597558387227
194.0,-0.0007374669442379907,0.00723564264233326,0.0008394951723403364
194.5,-0.0013119617397895072,0.006661147846781744,0.0005895611948831076
195.0,-0.002155883980631347,0.005817225605939904,9.307560125363691e-05
195.5,-0.002369233834911153,0.005603875751660098,0.00024412136450735738
196.0,-0.003335684459017601,0.00463742512755365,-0.00034687103328597934
196.5,-0.003892652346704524,0.004080457239866726,-0.0005230396726965039
197.0,-0.004164830310157898,0.0038082792764133526,-0.00041448593624926217
197.5,-0.004636796691088767,0.0033363128954824834,-0.0005107658343011532
198.0,-0.005054312584366793,0.002918797002204458,-0.0005620927735844146
198.5,-0.005227522575945326,0.0027455870106259245,-0.0003824690310098751
199.0,-0.0059511293879282124,0.0020219801986430383,-0.0007698167901919396
199.5,-0.0058967488125505774,0.0020763607740206733,-0.00039831438158326226
200.0,-0.006072125001130277,0.001900984585440974,-0.0002776159984143587
200.5,-0.006344115426620929,0.001628994159950322,-0.00027586155885793895
201.0,-0.007079358309924967,0.0008937512766462839,-0.0007603862293478426
201.5,-0.006714255939838817,0.001258853646732434,-0.00016775937509750814
202.0,-0.006972922419533854,0.0010001871670373965,-0.00022179765134014407
202.5,-0.006996407769695205,0.000976701816876046,-6.286040397069357e-05
203.0,-0.007022792925750692,0.0009503166608205585,7.198160362163308e-05
203.5,-0.007337685991280068,0.0006354235952911831,-0.0001016230894015542
204.0,-0.007575311311011031,0.00039779827556022003,-0.00021646539076884523
204.5,-0.007233393604794083,0.0007397159817771675,0.00023127598337304833
205.0,-0.0075974431289254196,0.00037566645764583115,-4.23079011770001e-05
205.5,-0.007329017125166678,0.0006440924614045723,0.00030283306198399776
206.0,-0.007793590431434466,0.00017951915513678487,-9.720346064183677e-05
206.5,-0.007216722297724233,0.0007563872888470173,0.0005335285150503445
207.0,-0.007288512955843818,0.0006845966307274329,0.0005063423906306267
207.5,-0.006781261290863009,0.0011918482957082414,0.0010502444488520895
208.0,-0.007280503691327501,0.0006926058952437496,0.0005808847743433953
208.5,-0.006884562450473645,0.0010885471360976059,0.0010010043091112767
209.0,-0.006975767843642286,0.0009973417429289646,0.0009292129177960353
209.5,-0.006840824245586569,0.0011322853409846817,0.0010796271079183907
210.0,-0.006847043527899928,0.0011260660586713224,0.0010856432286824546
210.5,-0.00680341828955913,0.001169691297012121,0.0011388727472781076
211.0,-0.006713645137232954,0.0012594644493382967,0.0012361286473805435
211.5,-0.006604911011067845,0.0013681985755034055,0.0013506493355108253
212.0,-0.006755246207863849,0.0012178633787074018,0.0012047559064877179
212.5,-0.006903927955572808,0.0010691816309984425,0.001059458533765797
213.0,-0.0067966265290795936,0.0011764830574916571,0.001169319720842801
213.5,-0.006458318491856895,0.0015147910947143559,0.001509549648362919
214.0,-0.006371235392066056,0.0016018741945051946,0.0015980651856845136
214.5,-0.006371267956769035,0.0016018416298022153,0.001599092483438761
215.0,-0.006623425187460915,0.0013496843991103354,0.0013477137522928389
215.5,-0.006344047809715784,0.0016290617768554665,0.0016276588184964088
216.0,-0.0064697210694901345,0.0015033885170811162,0.001502396530456535
216.5,-0.006407453476560337,0.001565656110010914,0.0015649594964851912
217.0,-0.006567795736919949,0.0014053138496513016,0.0014048279987195727
217.5,-0.006276880150274661,0.0016962294362965896,0.0016958928943297715
218.0,-0.006644185447236514,0.0013289241393347369,0.0013286926129615617
218.5,-0.006380206507408017,0.0015929030791632338,0.0015927448863458688
219.0,-0.0061498248169880405,0.0018232847695832102,0.001823177420557978
219.5,-0.006176316856775727,0.0017967927297955237,0.0017967203804673622
220.0,-0.006795563110304184,0.0011775464762670664,0.0011774980483317706
