wavelength,absorbance,absorbance_bk,residual_3gauss
117.0,0.18674865423015247,0.19562340983399304,0.0011709254614401532
117.5,0.18469945036915084,0.1935742059729914,-0.00021563520778980494
118.0,0.18060687341924656,0.18948162902308713,-0.003231806327251424
118.5,0.18170913408528416,0.19058388968912474,-0.0006486658065799622
119.0,0.1814634690825904,0.19033822468643097,0.0009785348315833053
119.5,0.1782462440361016,0.18712099963994216,1.0464963263401295e-05
120.0,0.17658598610082243,0.185460741704663,0.0009567488787792511
120.5,0.1724862433912296,0.18136099899507016,-0.00020116595539201865
121.0,0.17092529363131895,0.17980004923515952,0.001489714046852303
121.5,0.16707358737207115,0.17594834297591172,0.001171390219042584
122.0,0.16315635074758475,0.17203110635142532,0.0010374964957941823
122.5,0.15896468024361737,0.16783943584745795,0.0008444207388251523
123.0,0.1542581258651519,0.16313288146899246,0.0003139211750972648
123.5,0.14942934456222912,0.1583041001660697,-0.0002021762127323301
124.0,0.14461697809774268,0.15349173370158326,-0.0006090392577323689
124.5,0.14047187159612734,0.1493466271999679,-0.00030252596647065144
125.0,0.13552241041028235,0.14439716601412292,-0.0008037280488496501
125.5,0.13076433376291544,0.139639089366756,-0.001168991274801079
126.0,0.1265374105220745,0.13541216612591508,-0.0011130137835331233
126.5,0.12227032492052292,0.1311450805243635,-0.0012636598592616621
127.0,0.11845726307767898,0.12733201868151955,-0.0011849831279475975
127.5,0.11535915709091328,0.12423391269475384,-0.0006754875505349672
128.0,0.11215883546727952,0.12103359107112008,-0.0006123639267530817
128.5,0.10989113321559356,0.11876588881943412,-2.0637576841148197e-05
129.0,0.10729719931276732,0.11617195491660788,-0.0002179822358073097
129.5,0.1062832661554371,0.11515802175927765,0.0006450666446582987
130.0,0.1052884689454058,0.11416322454924636,0.0009540830157952762
130.5,0.1050331088935096,0.11390786449735016,0.0013802881012422302
131.0,0.1046915644632885,0.11356632006712906,0.0010548393518026722
131.5,0.10601776632888112,0.11489252193272168,0.0016957573841246826
132.0,0.10736999092440104,0.1162447465282416,0.0016342079835494905
132.5,0.10890675257791044,0.117781508181751,0.0010118727263744298
133.0,0.1115378337393741,0.12041258934321467,0.0007333936046758083
133.5,0.1146446408598593,0.12351939646369986,0.00018801895073511377
134.0,0.1189091348033488,0.12778389040718938,7.963529600518715e-05
134.5,0.12328053564516256,0.13215529124900313,-0.0006056805250843067
135.0,0.1284588303090911,0.13733358591293168,-0.0011156242840934527
135.5,0.13415573646187007,0.14303049206571064,-0.0016705473089307088
136.0,0.1407739471606337,0.14964870276447428,-0.001784484626064592
136.5,0.14795770074696854,0.1568324563508091,-0.0017153212176132526
137.0,0.1550945631447961,0.16396931874863668,-0.0019642313468249406
137.5,0.1632752853737012,0.17215004097754177,-0.001317532466080934
138.0,0.17154608762397147,0.18042084322781204,-0.0005965872490469037
138.5,0.18039058670954347,0.18926534231338404,0.0008214982574487328
139.0,0.1882626002164992,0.19713735582033978,0.001533668445534958
139.5,0.1955127076306576,0.20438746323449816,0.002034156885787619
140.0,0.20202320112829292,0.2108979567321335,0.002345890528530681
140.5,0.2072047082777509,0.21607946388159147,0.0020134410328443986
141.0,0.211088098191005,0.21996285379484556,0.0011912416408475512
141.5,0.2138013931235368,0.22267614872737737,0.00011690179699605507
142.0,0.21580803388474537,0.22468278948858594,-0.0006539222209038797
142.5,0.21710385839158788,0.22597861399542846,-0.001053634277187493
143.0,0.21740771831316272,0.2262824739170033,-0.0013147548909368534
143.5,0.21720235048674372,0.2260771060905843,-0.0009312108278125564
144.0,0.21563332640504165,0.22450808200888223,-0.0007609360325550596
144.5,0.21301918651141785,0.22189394211525842,-0.0005165773844233723
145.0,0.20929533139923384,0.21817008700307441,-0.0003216300003633932
145.5,0.20491314489739068,0.21378790050123125,0.00018957914046599522
146.0,0.199561909171904,0.20843666477574457,0.0005957239978555962
146.5,0.1930673222266412,0.20194207783048176,0.0005900312725063417
147.0,0.1858304978987577,0.19470525350259826,0.0004234932192973273
147.5,0.17767434866736503,0.1865491042712056,-0.00024335101113806545
148.0,0.1693381141983799,0.17821286980222048,-0.0008393787399063046
148.5,0.1616907884833426,0.17056554408718316,-0.0006620268339023183
149.0,0.15421410881522832,0.1630888644190689,-0.0003862724641083559
149.5,0.147254377229003,0.15612913283284358,0.00019535683825630534
150.0,0.14055801785076733,0.1494327734546079,0.0007160572843446233
150.5,0.13402117346721634,0.14289592907105692,0.0009909315562350862
151.0,0.1273559110063325,0.13623066661017308,0.000687947304454789
151.5,0.12109854760476144,0.129973303208602,0.0003385435495850131
152.0,0.11575617014801697,0.12463092575185752,0.0004834791709470432
152.5,0.1099690129352522,0.11884376853909276,-0.00016863601816814733
153.0,0.10525284106439088,0.11412759666823144,-5.877742425719479e-06
153.5,0.10035299516804252,0.10922775077188308,-0.00016849376292303597
154.0,0.09576362979842616,0.10463838540226672,-4.100419819512424e-05
154.5,0.0905475907007052,0.09942234630454576,-0.00044439696986155186
155.0,0.08547535714978631,0.09435011275362687,-0.0005087705016556254
155.5,0.07989103994395205,0.08876579554779261,-0.0008172172894221896
156.0,0.0744017614987459,0.08327651710258646,-0.0007235752806522278
156.5,0.0684891648407203,0.07736392044456086,-0.0007445680665136706
157.0,0.06272103689359178,0.07159579249743234,-0.0003480327344226597
157.5,0.05688628798731886,0.06576104359115942,0.00018586518356454584
158.0,0.05059331311369739,0.05946806871753795,0.00036988448592383677
158.5,0.04432063419973538,0.05319538980357594,0.0005694189498871363
159.0,0.03872237533487865,0.04759713093871921,0.001318107635080952
159.5,0.032597896781394166,0.041472652385234725,0.0012975188913486313
160.0,0.026498610412669824,0.03537336601651039,0.0009528915949996164
160.5,0.020973314481225983,0.02984807008506654,0.0007454697943595351
161.0,0.015916873580734445,0.024791629184575004,0.0005057702670114503
161.5,0.011080064110005025,0.019954819713845585,-5.454392344007852e-05
162.0,0.006906571376150938,0.0157813269799915,-0.0005060333944741126
162.5,0.003611391656559392,0.012486147260399953,-0.0006254343885990429
163.0,0.000627578371681548,0.00950233397552211,-0.0009526926783224639
163.5,-0.0018224910205597968,0.007052264583280764,-0.0012242862331046473
164.0,-0.0036866374871288975,0.005188118116711663,-0.0013375611659640985
164.5,-0.004876409473488788,0.003998346130351773,-0.0011488090347973297
165.0,-0.006225344061604368,0.0026494115422361925,-0.001435456778636512
165.5,-0.007148368789754761,0.0017263868140857995,-0.0015585703006903342
166.0,-0.007776331087867035,0.0010984245159735258,-0.0015995872083128678
166.5,-0.008245317887562718,0.0006294377162778426,-0.0016509799738469262
167.0,-0.008311993983179779,0.0005627616206607816,-0.0014321933215458828
167.5,-0.008656271479732889,0.00021848412410767175,-0.0015923255362775353
168.0,-0.00887475560384056,0.0,-0.0017031684305405309
168.5,-0.008740696494333284,0.00013405910950727712,-0.0015184944658220064
169.0,-0.008515853522715939,0.00035890208112462213,-0.0012851315022375021
169.5,-0.008777888984312957,9.686661952760384e-05,-0.001569544307129642
170.0,-0.008752191003508741,0.00012256460033181933,-0.0015888927537082655
170.5,-0.00849758996691325,0.00037716563692731,-0.0013960724702856847
171.0,-0.008403850105359571,0.00047090549848098975,-0.0013766381391531605
171.5,-0.008029688618842658,0.0008450669849979029,-0.0010863639653294105
172.0,-0.008224312949696028,0.000650442654144533,-0.0013724235652802104
172.5,-0.007528009482248426,0.001346746121592135,-0.0007737086260619645
173.0,-0.007346230864585927,0.001528524739254634,-0.0006947176516140857
173.5,-0.007191762843162831,0.0016829927606777295,-0.000647580239130779
174.0,-0.0073562766601804035,0.0015184789436601571,-0.0009235092657189628
174.5,-0.006931442166359587,0.0019433134374809737,-0.0006138448227400836
175.0,-0.006610023275805328,0.002264732328035233,-0.0004111026286867875
175.5,-0.006521410827027411,0.0023533447768131497,-0.0004444752784276292
176.0,-0.006036238309261094,0.0028385172945794663,-8.442690750345158e-05
176.5,-0.006171178904815835,0.0027035766990247253,-0.0003474762753540809
177.0,-0.005983907135021652,0.0028908484688189087,-0.00029114918182554603
177.5,-0.0056147618859253715,0.003259993717915189,-5.563539332327939e-05
178.0,-0.005593667658055928,0.0032810879457846323,-0.0001707058625687657
178.5,-0.005185720932216276,0.0036890346716242847,9.870356022519166e-05
179.0,-0.004992002404051315,0.003882753199789246,0.00015168162290755873
179.5,-0.005045899570914618,0.0038288560329259426,-4.4979817821924443e-05
180.0,-0.004874494072158025,0.004000261531682535,-1.817248203694541e-05
180.5,-0.004602111078944016,0.0042726445248965446,0.00010797927896377072
181.0,-0.004380714284109952,0.004494041319730609,0.00018172359037353734
181.5,-0.004306499854186445,0.004568255749654116,0.00010708701606987597
182.0,-0.004015832837108335,0.004858922766732225,0.00024793791858843724
182.5,-0.0039473101232105606,0.00492744548063,0.00016592314465981028
183.0,-0.0038656879668305367,0.005009067637010024,9.654004681327027e-05
183.5,-0.0031715276201969966,0.005703227983643564,0.000639490302210455
184.0,-0.0030946074555135974,0.005780148148326963,0.0005652671623653975
184.5,-0.0029639558314596337,0.005910799772380927,0.0005451218849660206
185.0,-0.0029317687162452484,0.005942986887595312,0.0004271453417566719
185.5,-0.0025381729442393104,0.006336582659601251,0.0006715039307620919
186.0,-0.002278728547644066,0.0065960270561964945,0.0007829363562526486
186.5,-0.002260349302363149,0.006614406301477412,0.0006548321420095397
187.0,-0.002166240352233257,0.0067085152516073035,0.0006042930184286888
187.5,-0.0020117010575984163,0.006863054546242144,0.0006163290423096832
188.0,-0.0017038947509457271,0.007170860852894834,0.0007840877716214362
188.5,-0.0016433590198988433,0.007231396583941717,0.0007073428801819548
189.0,-0.0015055060510579992,0.0073692495527825615,0.0007109926842347042
189.5,-0.001078917370239279,0.007795838233601282,0.0010067642510756371
190.0,-0.0010296477374246132,0.007845107866415948,0.0009289083373469039
190.5,-0.0007970513909764751,0.008077704212864086,0.0010383719685674421
191.0,-0.0008720654865305102,0.00800269011731005,0.0008445138207769515
191.5,-0.0005045772619287433,0.008370178341911817,0.0010977358793496936
192.0,-0.0005595469906374261,0.008315208613203135,0.000933359319042139
192.5,-0.0003391063079265511,0.00853564929591401,0.0010495250275513873
193.0,-0.000281160781654998,0.008593594822185562,0.0010085899072949777
193.5,-0.0002365672195335437,0.008638188384307017,0.0009599484700483791
194.0,-3.989166959453638e-05,0.008834863934246024,0.001069273774126518
194.5,-0.0001590389906977946,0.008715716613142766,0.0008688868335539803
195.0,0.0001444420391222668,0.009019197642962827,0.0010974505375048894
195.5,0.00014359704963995,0.009018352653480511,0.00102820705903554
196.0,0.0002634585310912932,0.009138214134931854,0.0010863694490207965
196.5,-9.849521330190892e-06,0.00886490608251037,0.0007582254867160316
197.0,-0.00029219241830188454,0.008582563185538676,0.00042805614466225224
197.5,-0.00013985151633346852,0.008734904087507092,0.0005397081986073388
198.0,-0.00031403534122013786,0.008560720262620423,0.00033208253212793117
198.5,-0.0004948970119722564,0.008379858591868305,0.00012511622254011458
199.0,-0.000673765792484026,0.008200989811356535,-7.244941609040045e-05
199.5,-0.0009043500187476538,0.007970405585092906,-0.000314272078095805
200.0,-0.0010407342866579632,0.007834021317182598,-0.0004544058825519514
200.5,-0.0015368731932605057,0.007337882410580055,-0.0009467952522318347
201.0,-0.0014800761459557357,0.007394679457884825,-0.0008787597688085288
201.5,-0.0018855526743006088,0.006989202929539952,-0.0012655394386579134
202.0,-0.0019164326279137312,0.006958322975926829,-0.0012703147530583022
202.5,-0.002521744649583924,0.0063530109542566365,-0.0018421849327577254
203.0,-0.0025584085036697937,0.0063163471001707674,-0.001838159938439915
203.5,-0.0025078265783131833,0.006366929025527377,-0.0017397515676163596
204.0,-0.002615051905338569,0.006259703698501992,-0.001792140984365643
204.5,-0.002417287834125284,0.0064574677697152765,-0.0015326778212802926
205.0,-0.002536702952339491,0.0063380526515010695,-0.0015836944500806612
205.5,-0.00283264047580783,0.006042115128032731,-0.0018047146472210882
206.0,-0.0027311606261149575,0.006143594977725603,-0.0016219951775522335
206.5,-0.0030984845794182463,0.005776271024422314,-0.0019019688844171502
207.0,-0.0027945365135122135,0.006080219090328347,-0.0015047858184621876
207.5,-0.002979429798708522,0.005895325805132039,-0.0015907984562998582
208.0,-0.0027195380292954377,0.006155217574545123,-0.0012266317116384007
208.5,-0.002777854505045985,0.006096901098794576,-0.0011755413544323294
209.0,-0.002446663636557249,0.006428091967283311,-0.0007300843181092158
209.5,-0.002812050578767117,0.006062705025073443,-0.0009766272056319037
210.0,-0.0027092515309635697,0.006165504072876991,-0.0007506954392164662
210.5,-0.0026490846455213286,0.006225670958319232,-0.0005634030024899402
211.0,-0.0025873025278188287,0.0062874530760217325,-0.00037080376408656513
211.5,-0.002626848697273348,0.006247906906567213,-0.0002761467591157014
212.0,-0.002777087025988476,0.006097668577852084,-0.00028910445139483307
212.5,-0.0024525685994194473,0.006422187004421114,0.00017546157288774594
213.0,-0.002571532109835517,0.006303223494005044,0.0001990013632245536
213.5,-0.002767857964904751,0.00610689763893581,0.00014732362637483263
214.0,-0.00259614900347806,0.0062786066003625,0.0004655161138125193
214.5,-0.0024499774908890545,0.006424778112951507,0.0007596996974179914
215.0,-0.0021021038374530445,0.006772651766387516,0.001256810684753376
215.5,-0.0023489680825748687,0.006525787521265692,0.0011601103268876218
216.0,-0.0023314818169945417,0.006543273786846019,0.001328393841995193
216.5,-0.0022369118576155505,0.00663784374622501,0.0015741076364343357
217.0,-0.00244507484267042,0.006429680761170141,0.0015171555521157351
217.5,-0.002236262945898628,0.006638492657941933,0.001876973938479987
218.0,-0.0019556056596741382,0.0069191499441664224,0.0023081705965775166
218.5,-0.00223645380633622,0.006638301797504341,0.002177141433871179
219.0,-0.0019842258641423575,0.006890529739698203,0.0025782247416616336
219.5,-0.0019045904396056252,0.006970165164234935,0.00280551926213528
220.0,-0.001920681232909976,0.006954074370930584,0.002935669697541465
