wavelength,absorbance,absorbance_bk,residual_3gauss
117.0,0.4791000188627941,0.48869725506966416,-0.004081411967698678
117.5,0.4841331218010193,0.4937303580078894,0.0036035960051051252
118.0,0.4719522510421498,0.48154948724901986,-0.0051610211191945865
118.5,0.4731032414046032,0.4827004776114733,0.00015032806066056503
119.0,0.4696260263044429,0.479223262511313,0.0015528021646789014
119.5,0.46244576841387536,0.47204300462074544,-5.780590270493269e-05
120.0,0.45827523127595654,0.4678724674828266,0.0019972275955882357
120.5,0.45093087337934495,0.46052810958621504,0.001495560680883301
121.0,0.4449036253459296,0.4545008615527997,0.0028844535731101795
121.5,0.43793552212159786,0.44753275832846795,0.0038572713533457925
122.0,0.42814971191070367,0.43774694811757375,0.0024833435514620694
122.5,0.41737022373238464,0.4269674599392547,0.0005275656010926832
123.0,0.4090558337501298,0.4186530699569999,0.001384088597064903
123.5,0.3981391282199692,0.4077363644268393,-8.479473606071153e-05
124.0,0.3873565082432501,0.39695374445012016,-0.0012188083546675332
124.5,0.376700554628204,0.3862977908350741,-0.0021074582505255512
125.0,0.365627902609197,0.37522513881606706,-0.003382231409023717
125.5,0.3560206066408002,0.3656178428476703,-0.003255219809555343
126.0,0.34659423291202174,0.3561914691188918,-0.0031108992524139234
126.5,0.3365857251416504,0.3461829613485205,-0.0038179814595579176
127.0,0.32922085679257584,0.33881809299944593,-0.0022614881219042426
127.5,0.3209297553153912,0.3305269915222613,-0.0021265225606665328
128.0,0.31368178036187433,0.3232790165687444,-0.0015624199091309188
128.5,0.3075200092912266,0.31711724549809667,-0.0006469894088376726
129.0,0.30298729329436447,0.31258452950123455,0.0010411406950482371
129.5,0.29852605565934626,0.30812329186621634,0.0018242634499825439
130.0,0.29517781786928554,0.3047750540761556,0.0026274076441126226
130.5,0.29261808395940864,0.3022153201662787,0.0030158441734164376
131.0,0.29099410121508373,0.3005913374219538,0.003035771264274678
131.5,0.29089178524907294,0.30048902145594303,0.003184415013963604
132.0,0.2922272484403268,0.3018244846471969,0.0033049111382314478
132.5,0.2944279420591912,0.3040251782660613,0.002770883636751653
133.0,0.29829595320502245,0.30789318941189253,0.002353146635393044
133.5,0.3029802554033853,0.3125774916102554,0.0011951957993914797
134.0,0.3093730993698328,0.3189703355767029,0.00021252989771824993
134.5,0.31727802588724063,0.3268752620941107,-0.0007368694289741073
135.0,0.3257651491726598,0.3353623853795299,-0.002495406447177384
135.5,0.336588154324118,0.34618539053098807,-0.0031877937354684582
136.0,0.3483175848705144,0.3579148210773845,-0.004087586154413736
136.5,0.3616047362060997,0.37120197241296976,-0.004354121524537569
137.0,0.3765862267013672,0.3861834629082373,-0.0036298762525498462
137.5,0.39271776809964015,0.40231500430651024,-0.0022097566372985544
138.0,0.4091299389025288,0.4187271751093989,-0.0006895216201059373
138.5,0.4256310916011004,0.4352283278079705,0.0010318403677211374
139.0,0.4415730573120719,0.451170293518942,0.0026115371246023256
139.5,0.45626994547883887,0.46586718168570895,0.0036746364524160025
140.0,0.46882740387119193,0.478424640078062,0.0036355114711471015
140.5,0.4792436160736211,0.4888408522804912,0.0027905570900153553
141.0,0.48703830605536313,0.4966355422622332,0.0009386863540943868
141.5,0.49340107223863006,0.5029983084455001,-0.0004788128119461721
142.0,0.4976565022368412,0.5072537384437112,-0.0019213391029592186
142.5,0.5013378153235187,0.5109350515303888,-0.0016829333434644766
143.0,0.5024505562576485,0.5120477924645185,-0.0016353229275987147
143.5,0.5019960791774406,0.5115933153843106,-0.0007100310904224472
144.0,0.49886691401433875,0.5084641502212088,-7.1682249183080415e-06
144.5,0.49307214135924904,0.5026693775661191,0.0004275163171743035
145.0,0.4850794649444742,0.49467670115134427,0.0009443086931629763
145.5,0.474962326208034,0.4845595624149041,0.0014385646823079634
146.0,0.4622703396164945,0.4718675758233646,0.001225640929396532
146.5,0.4478344662125937,0.4574317024194638,0.0008533349812744895
147.0,0.43166202150650784,0.44125925771337793,7.012271353690203e-06
147.5,0.414608147569808,0.4242053837766781,-0.000806037277078564
148.0,0.39669752334496405,0.40629475955183414,-0.0019195544064945502
148.5,0.37959181422142174,0.3891890504282918,-0.0020236693620938606
149.0,0.36328221321200377,0.37287944941887385,-0.0014542082664639189
149.5,0.3481629215393256,0.3577601577461957,-0.00010128614004450975
150.0,0.3330108460963034,0.34260808230317347,0.0005866751622413124
150.5,0.3182617745235973,0.32785901073046736,0.0008922362309177201
151.0,0.3045446632110175,0.31414189941788756,0.0013716952388954096
151.5,0.2905514479967788,0.3001486842036489,0.0007274912061250305
152.0,0.2773390048389049,0.286936241045775,0.0001061068819513955
152.5,0.2653488486190648,0.2749460848259349,0.00010690900028592631
153.0,0.2537930200341446,0.2633902562410147,0.00015096005091497222
153.5,0.24242384531788036,0.25202108152475045,0.0002288202923728111
154.0,0.23063288321082925,0.2402301194176993,-2.5356960176969867e-05
154.5,0.2186426685711323,0.22823990477800235,-0.0001673874337445591
155.0,0.20596260375069608,0.21555983995756614,-0.0005103216853493409
155.5,0.19298947622050427,0.20258671242737433,-0.0005425041610173098
156.0,0.17923225182348052,0.18882948803035057,-0.0007148403755248278
156.5,0.16532704409264734,0.1749242802995174,-0.00043019585637310565
157.0,0.1511260058593821,0.16072324206625216,4.907877792031945e-05
157.5,0.1358380262345918,0.14543526244146185,-0.00024729998791403474
158.0,0.12125525172075832,0.13085248792762838,0.0002455957195292291
158.5,0.10670043117591713,0.11629766738278718,0.000595544112990995
159.0,0.09240110706153824,0.1019983432684083,0.0007689456047566129
159.5,0.07854784339207944,0.0881450795989495,0.0007095754500595491
160.0,0.0652966030622068,0.07489383926907686,0.0003584266352944093
160.5,0.0535500925303216,0.06314732873719166,0.0004480195118297253
161.0,0.042023809572129686,0.051621045778999744,-0.00042384620968841796
161.5,0.032447811389099225,0.04204504759596929,-0.0005899488220363069
162.0,0.024275507954710108,0.03387274416158017,-0.0006072723011999528
162.5,0.017180412110799494,0.026777648317669555,-0.000766494011888625
163.0,0.011793553089920705,0.021390789296790766,-0.0003633966145588849
163.5,0.007177295482152846,0.016774531689022907,-0.00023517737214392292
164.0,0.003652701314441972,0.013249937521312033,5.6657233931224973e-05
164.5,0.0012364204465418035,0.010833656653411865,0.0006537426789405415
165.0,-0.0014090688916493352,0.008188167315220726,0.0003431297747901532
165.5,-0.002951840920903407,0.006645395285966654,0.0005747617015220844
166.0,-0.0046146439114708076,0.004982592295399254,0.00023311806505431614
166.5,-0.005341133574902562,0.0042561026319674995,0.0004685262228184303
167.0,-0.006334496048349064,0.0032627401585209976,0.00015759225845424522
167.5,-0.007024006892894744,0.002573229313975317,-6.313651648739635e-05
168.0,-0.007418570312754328,0.0021786658941157335,-0.0001496767221893739
168.5,-0.008136826586583826,0.0014604096202862349,-0.0006791950262592262
169.0,-0.008766810779870585,0.0008304254269994767,-0.0012079277696810512
169.5,-0.008580726013255066,0.0010165101936149955,-0.0009842000129683822
170.0,-0.008824666604751785,0.0007725696021182761,-0.0012365157684006804
170.5,-0.009597236206870061,0.0,-0.0020507431474669677
171.0,-0.009564992671927137,3.2243534942924534e-05,-0.0020843591917958323
171.5,-0.009399252186944313,0.00019798401992574856,-0.00200228756940054
172.0,-0.009347507865493062,0.000249728341376999,-0.00204756461254446
172.5,-0.009480426044537856,0.00011681016233220515,-0.0022877666685887595
173.0,-0.009201665450849335,0.00039557075602072653,-0.002124410241991616
173.5,-0.00926785557004511,0.00032938063682495106,-0.0023126288323912455
174.0,-0.008929997466351357,0.0006672387405187042,-0.002102361157081273
174.5,-0.008993588385252835,0.0006036478216172262,-0.002298328486039299
175.0,-0.008490920203367348,0.0011063160035027133,-0.001932232586910664
175.5,-0.008666105010217839,0.0009311311966522223,-0.002247713538984859
176.0,-0.008330053242248722,0.0012671829646213398,-0.0020552825961003083
176.5,-0.008512571167470097,0.0010846650393999645,-0.002384389633728463
177.0,-0.007408497706409912,0.002188738500460149,-0.001429540139569425
177.5,-0.007096670119072872,0.0025005660877971897,-0.0012692478692992084
178.0,-0.00727595086614271,0.002321285340727351,-0.0016020532021461783
178.5,-0.006228477685478615,0.003368758521391446,-0.0007097677384874978
179.0,-0.006175902812599316,0.0034213333942707458,-0.0008137100870606959
179.5,-0.005914340903537652,0.003682895303332409,-0.0007096517593670609
180.0,-0.005678420086005824,0.003918816120864237,-0.0006318671774048082
180.5,-0.005150872308388413,0.0044463638984816485,-0.0002627236869782784
181.0,-0.004977149380937161,0.0046200868259329,-0.00024729778540797005
181.5,-0.004847365889111835,0.004749870317758227,-0.0002753186171860914
182.0,-0.00409550618243037,0.005501730024439691,0.0003196241471093101
182.5,-0.0039391316906256775,0.005658104516244384,0.0003203718598547723
183.0,-0.003572135051177459,0.006025101155692603,0.0005334414358576043
183.5,-0.003118383910451709,0.006478852296418352,0.0008353800557134991
184.0,-0.0030712313245830395,0.006526004882287021,0.0007332531354043896
184.5,-0.0023801938270407936,0.007217042379829268,0.0012779645189635366
185.0,-0.001960573239408998,0.007636662967461063,0.0015546328383699301
185.5,-0.0013125812865514223,0.00828465492031864,0.0020634649982252604
186.0,-0.0013489039528917224,0.008248332253978339,0.0018921898659770365
186.5,-0.0009113684526965155,0.008685867754173546,0.002199389311541536
187.0,-0.00029998585801665085,0.00929725034885341,0.002685453568957499
187.5,-0.0003289281146399085,0.009268308092230153,0.0025366022057163908
188.0,2.2896744559333806e-05,0.009620132951429395,0.0027743069061715265
188.5,0.00035576200978884484,0.009952998216658905,0.002999206905529344
189.0,0.0006936769053832588,0.01029091311225332,0.003235661667133161
189.5,0.0006393137943274658,0.010236550001197527,0.003086676210693017
190.0,0.00054997655655915,0.010147212763429211,0.0029098676864226973
190.5,0.001148711975294614,0.010745948182164676,0.00342857504349617
191.0,0.0008019610974695403,0.010399197304339601,0.0030095087724807583
191.5,0.0008347528123501836,0.010431989019220244,0.0029779429786525365
192.0,0.0009090976174303368,0.010506333824300398,0.002996107767330802
192.5,0.0008449739035107757,0.010442210110380837,0.0028841742842119983
193.0,0.0006259159980468535,0.010223152204916914,0.002625841659831021
193.5,0.0005275293547466683,0.01012476556161673,0.0024968512550373823
194.0,-4.065218770388428e-06,0.009593170988099673,0.001943430106978024
194.5,-0.0006245681046584471,0.008972668102211614,0.0013099537725667024
195.0,-0.0012776537901540352,0.008319582416716025,0.0006527929741820798
195.5,-0.0022431223941400194,0.007354113812730042,-0.00030783818842403457
196.0,-0.002777102507811952,0.006820133699058109,-0.0008280851606888764
196.5,-0.0031316781245447154,0.006465558082325346,-0.0011600797646689701
197.0,-0.0038835682124458448,0.005713667994424217,-0.0018806194935968067
197.5,-0.004260323398719658,0.0053369128081504034,-0.0022173637409230113
198.0,-0.004655020883179495,0.004942215323690566,-0.0025635280848548565
198.5,-0.005464796011848523,0.004132440195021538,-0.0033164150644045933
199.0,-0.0054319275335389765,0.004165308673331085,-0.00321849847625651
199.5,-0.005320447752332442,0.0042767884545376195,-0.0030340324130733827
200.0,-0.005299747431596162,0.004297488775273899,-0.002932654907774327
200.5,-0.005497385823780983,0.004099850383089078,-0.003042196568034038
201.0,-0.005805923794001698,0.0037913124128683634,-0.003255512180013362
201.5,-0.006167319846501035,0.003429916360369026,-0.0035148751023245436
202.0,-0.005855957543377597,0.0037412786634924648,-0.0030950029522865434
202.5,-0.005687208205882994,0.0039100280009870675,-0.002811618488097129
203.0,-0.005407018051773882,0.00419021815509618,-0.002411034854243697
203.5,-0.00569660503942172,0.0039006311674483415,-0.0025748504750715343
204.0,-0.005219311494545843,0.004377924712324218,-0.0019667996868336576
204.5,-0.005608180136480813,0.003989056070389249,-0.0022203267396970934
205.0,-0.005668051203815872,0.00392918500305419,-0.0021406808840767283
205.5,-0.005622882595422302,0.0039743536114477595,-0.0019522344716820517
206.0,-0.005548495524582921,0.00404874068228714,-0.0017312265830679643
206.5,-0.005696827848897998,0.0039004083579720636,-0.0017300143580251557
207.0,-0.005390483711694425,0.004206752495175636,-0.001271620677666235
207.5,-0.005267607568320794,0.004329628638549268,-0.0009946062840798112
208.0,-0.0053681353313309805,0.004229100875539081,-0.0009393190833061104
208.5,-0.005467298105606861,0.004129938101263201,-0.000881396113608472
209.0,-0.005265213575258991,0.00433202263161107,-0.0005213532508984075
209.5,-0.0050683263270418,0.004528909879828262,-0.00016602394509825265
210.0,-0.004668266810055423,0.0049289693968146385,0.000392583304764574
210.5,-0.005018272833037527,0.0045789633738325345,0.00020086482847438396
211.0,-0.004883467543648496,0.0047137686632215655,0.0004933450652955538
211.5,-0.005150502513523811,0.004446733693346251,0.0003830346188778734
212.0,-0.00465625928890518,0.004940976917964881,0.0010327297229678492
212.5,-0.005293787479628101,0.004303448727241961,0.0005490750426437869
213.0,-0.004293501322076509,0.005303734884793553,0.0017013678740573652
213.5,-0.004313609472417188,0.005283626734452873,0.001831128986032226
214.0,-0.004569234553035594,0.005028001653834467,0.0017229835812931954
214.5,-0.0044989513555675036,0.005098284851302558,0.0019381234756120848
215.0,-0.004387275053913894,0.005209961152956168,0.002191819144093044
215.5,-0.0042714391100667215,0.00532579709680334,0.0024466419552476954
216.0,-0.0040201335018201926,0.005577102705049869,0.002833725968062355
216.5,-0.0042602221223352445,0.005337014084534817,0.002726050447091569
217.0,-0.00435927270354837,0.005237963503321692,0.002755909749235959
217.5,-0.004273120401646626,0.005324115805223436,0.002967349450197751
218.0,-0.003978769677302424,0.005618466529567637,0.003383264084618713
218.5,-0.004304794701858281,0.00529244150501178,0.0031749962758076864
219.0,-0.004108547992364949,0.005488688214505113,0.0034851275595668297
219.5,-0.004130704912707725,0.005466531294162336,0.003572933272526408
220.0,-0.003793806044086556,0.0058034301627835055,0.004015839509518198
