wavelength,absorbance,absorbance_bk,residual_3gauss
117.0,0.4429797043829608,0.4487291044740741,-0.0026294059793315894
117.5,0.4407208363924633,0.4464702364835766,-0.002124507738391568
118.0,0.4403488638755516,0.4460982639666649,0.0008509943684059662
118.5,0.43474423982551286,0.44049363991662616,-0.0008384554565404323
119.0,0.4315188250563055,0.4372682251474188,0.0004000913327408817
119.5,0.4276586453498378,0.4334080454409511,0.001530797001092099
120.0,0.4224017595054482,0.4281511595965615,0.0017668445568036484
120.5,0.4166276117853512,0.4223770118764645,0.001959712862177554
121.0,0.41048364003798216,0.41623304012909546,0.0022256886541170973
121.5,0.4040549656195698,0.40980436571068307,0.002615440061113361
122.0,0.3957839942504656,0.4015333943415789,0.0015334805117977468
122.5,0.3872055645805152,0.3929549646716285,0.0004731612631669324
123.0,0.3791795739551356,0.3849289740462489,0.0002491256100644046
123.5,0.3705619678315116,0.3763113679226249,-0.00033188267139466765
124.0,0.36181149897271714,0.36756089906383044,-0.0008644414969212755
124.5,0.35318168481553486,0.35893108490664816,-0.0011526626096434733
125.0,0.3433900806001635,0.3491394806912768,-0.002541060384451732
125.5,0.3356196917129285,0.3413690918040418,-0.001913234637825667
126.0,0.32690911734418665,0.33265851743529995,-0.0023017527598759857
126.5,0.3184271246086646,0.3241765246997779,-0.002613506449811509
127.0,0.31076861289610247,0.31651801298721577,-0.0023335553821071664
127.5,0.3038958540866746,0.3096452541777879,-0.0015835428943277718
128.0,0.2969559061861278,0.3027053062772411,-0.0013037567798593885
128.5,0.2910546660367778,0.2968040661278911,-0.0004783416743737168
129.0,0.2858756534755506,0.2916250535666639,0.00048445380952077954
129.5,0.281144328857629,0.2868937289487423,0.0012178161168764912
130.0,0.27672262702649875,0.28247202711761205,0.0014923863307807483
130.5,0.27350026669340516,0.27924966678451846,0.0021093206102336115
131.0,0.270850153235381,0.2765995533264943,0.0023576987785143277
131.5,0.2690995244859769,0.2748489245770902,0.002487906025243014
132.0,0.2683246315834846,0.2740740316745979,0.0025087399125136023
132.5,0.26836447085151927,0.27411387094263256,0.0022037027872307546
133.0,0.2691679378687514,0.27491733795986467,0.0014807789432910168
133.5,0.2711377410345516,0.2768871411256649,0.0007189470672157028
134.0,0.2743963138615676,0.2801457139526809,3.656745318220134e-05
134.5,0.2781900607377392,0.2839394608288525,-0.0013021309652151425
135.0,0.284080460659564,0.2898298607506773,-0.001694054899655295
135.5,0.29066708747274483,0.29641648756385813,-0.002472800472747616
136.0,0.29897603143395257,0.30472543152506587,-0.0025193838853476147
136.5,0.3084807758871069,0.31423017597822017,-0.0022411970535635706
137.0,0.31918403269857937,0.32493343278969267,-0.0014907701234326276
137.5,0.3308248436422844,0.3365742437333977,-0.00036009733556491286
138.0,0.3429414019365053,0.3486908020276186,0.0008798910202122978
138.2,0.34582788819355426,0.35157728828466756,-0.0006404392594636654
138.4,0.3508263345938949,0.3565757346850082,-5.992820674971533e-05
138.6,0.355582659388489,0.3613320594796023,0.00028181226915885427
138.8,0.35991643923235966,0.36566583932347296,0.0002191116458760689
139.0,0.3644755499439677,0.370224950035081,0.0004148285176645006
139.2,0.3690823261025988,0.3748317261937121,0.0007064543875838769
139.4,0.3740575922577218,0.3798069923488351,0.0014300864952319081
139.6,0.37838747176422416,0.38413687185533746,0.001587175912683647
139.8,0.38221870705795824,0.38796810714907154,0.0013397849603602463
140.0,0.38577935144493414,0.39152875153604744,0.000931214271227887
140.2,0.38942813196737475,0.39517753205848805,0.0007352993384815987
140.4,0.3931707358608462,0.3989201359519595,0.0007726293489894731
140.6,0.3962407598735981,0.4019901599647114,0.00029142787699121264
140.8,0.39906690129859057,0.40481630138970387,-0.0002653253934661315
141.0,0.40224139258254016,0.40799079267365346,-0.0002915297209566403
141.2,0.40487345921063217,0.41062285930174547,-0.0006645750896906444
141.4,0.407478093396163,0.4132274934872763,-0.0008566378349567083
141.6,0.4098935348747186,0.4156429349658319,-0.0010172684394796905
141.8,0.41251560136931376,0.41826500146042705,-0.0007391285494188216
142.0,0.4138348623776324,0.4195842624687457,-0.001520883161054254
142.2,0.4167640255593716,0.4225134256504849,-0.00043987828933539364
142.4,0.41741800405773616,0.42316740414884946,-0.0013721353602488273
142.6,0.4192446906734108,0.4249940907645241,-0.0008616359714730404
142.8,0.42029183059231146,0.42604123068342475,-0.0008535048695943459
143.0,0.4207792018332205,0.4265286019243338,-0.0011218815143481664
143.2,0.4222155285913789,0.4279649286824922,-0.00015305457786912724
143.4,0.4229910179100943,0.4287404180012076,0.00044703154069375417
143.6,0.42231118358566094,0.42806058367677424,-0.00011343741167230137
143.8,0.42254755186712584,0.42829695195823914,0.000538527786678511
144.0,0.42140022079113526,0.42714962088224856,0.00010325296771795944
144.2,0.4209447676849703,0.4266941677760836,0.0006552885630463079
144.4,0.4192141921476692,0.4249635922387825,0.00022534026732484724
144.6,0.41783243236704853,0.42358183245816183,0.00043378073579802834
144.8,0.41618132963463833,0.42193072972575163,0.0006576176647778431
145.0,0.41402639326180896,0.41977579335292226,0.0006562709219252727
145.2,0.4116839827982544,0.4174333828893677,0.000738776058546109
145.4,0.4094742767570005,0.4152236768481138,0.0012167837962293593
145.6,0.4068733356151844,0.4126227357062977,0.0015566635908879078
145.8,0.40340883312821896,0.40915823321933226,0.0012752855788675244
146.0,0.3995693517402376,0.4053187518313509,0.0008493768751032249
146.2,0.39637109620204886,0.40212049629316216,0.0012823064279862129
146.4,0.39265320433255135,0.39840260442366465,0.001399477352696521
146.6,0.3880109964908318,0.3937603965819451,0.0007816681746201648
146.8,0.38319985451254446,0.38894925460365776,0.0001690134661583298
147.0,0.3797529644782244,0.3855023645693377,0.0010788578272987182
147.2,0.37415012181726726,0.37989952190838056,-2.5318861346268484e-05
147.4,0.3693812592485925,0.3751306593397058,-0.000170245153662818
147.6,0.3645173143751986,0.3702667144663119,-0.00030185481863420627
147.8,0.3586208567372974,0.3643702568284107,-0.0013745179724352075
148.0,0.354087460397247,0.3598368604883603,-0.0010095217555055602
148.2,0.3485940018685522,0.3543434019596655,-0.0015466221808206893
148.4,0.34340662173150904,0.34915602182262234,-0.001735930412670672
148.6,0.33864573581881785,0.34439513590993115,-0.00147274934477859
148.8,0.33367307770116467,0.33942247779227797,-0.0014103806323921275
149.0,0.32854731093855016,0.33429671102966346,-0.0015043657070286098
149.2,0.32389786893839473,0.329647269029508,-0.0011385050096737737
149.4,0.319442573277928,0.3251919733690413,-0.0006071067122928042
149.6,0.3149592847991103,0.3207086848902236,-0.00014321276121465054
149.8,0.3102082851697516,0.3159576852608649,3.893334570015394e-06
150.0,0.3048620511183322,0.3106114512094455,-0.0005014428714917862
150.5,0.2947610392888327,0.300510439379946,0.0012099718718716623
151.0,0.28333219436883667,0.28908159445994996,0.0011394000720307829
151.5,0.2717580621277458,0.2775074622188591,0.00047327485415277204
152.0,0.2610768874558081,0.2668262875469214,0.0003143569657699796
152.5,0.2507810956463764,0.2565304957374897,0.00027192030975020653
153.0,0.2410022529041146,0.2467516529952279,0.0006333881438823075
153.5,0.23087760612873337,0.23662700621984667,0.0007135778869858389
154.0,0.22047687727878823,0.22622627736990153,0.0007618152553621749
154.5,0.20955064589019412,0.21530004598130742,0.0006902025531320688
155.0,0.19799580237031245,0.20374520246142575,0.0005206119533112119
155.5,0.18563400437234784,0.19138340446346114,0.00014829704523269815
156.0,0.17261418375762283,0.17836358384873613,-0.0002652550709258683
156.5,0.15877322752704315,0.16452262761815645,-0.0009351308140438108
157.0,0.14468644676156314,0.15043584685267644,-0.0013995919987189742
157.5,0.13170378810298394,0.13745318819409724,-0.0004750189222293977
158.0,0.11831328959989824,0.12406268969101154,0.00012113877821226526
158.5,0.10428847367448064,0.11003787376559394,-6.556312383060314e-05
159.0,0.090634659511602,0.0963840596027153,-0.00026239268262506776
159.5,0.0783772744540718,0.0841266745451851,0.0003360003172646203
160.0,0.0652378579534641,0.0709872580445774,-0.0007416651817915842
160.5,0.05411492566253986,0.059864325753653164,-0.0007512993143612909
161.0,0.044639599246498816,0.05038899933761212,-0.00017096768657168943
161.5,0.035727317321718154,0.04147671741283146,-0.00014675887229070178
162.0,0.02797022387043695,0.03371962396155025,-0.00010202571625001627
162.5,0.021730711834481744,0.027480111925595047,0.0003512286337074254
163.0,0.016078846577272318,0.02182824666838562,0.00034252513151922237
163.5,0.012613906090929857,0.01836330618204316,0.0015559335820463094
164.0,0.008537349219685627,0.014286749310798931,0.001294246673739858
164.5,0.005701487190867389,0.011450887281980692,0.0015193981700218594
165.0,0.0032375776222450868,0.008986977713358392,0.0014734361718099784
165.5,0.001553958826857298,0.0073033589179706026,0.0016710157990977859
166.0,5.411074319461974e-05,0.005803510834307924,0.00161341686746378
166.5,-0.0007166539852128549,0.005032746105900449,0.001932724414601887
167.0,-0.0018141721706910312,0.0039352279204222735,0.0016476729020464325
167.5,-0.0029633865287279648,0.0027860135623853396,0.0010955835701394387
168.0,-0.004046007780656178,0.0017033923104571268,0.00044537028882904754
168.5,-0.003884094222501228,0.0018653058686120762,0.0009151234119879778
169.0,-0.004603767106315801,0.0011456329847975037,0.0004098143869325551
169.5,-0.00417396117945145,0.0015754389116618547,0.0009840352768022526
170.0,-0.004143384599907857,0.0016060154912054475,0.0011064672752448394
170.5,-0.004291606850026436,0.0014577932410868681,0.0010100778796118314
171.0,-0.005193889469162123,0.000555510621951181,0.0001283912419454492
171.5,-0.0051130412362698965,0.0006363588548434079,0.00020453997330689466
172.0,-0.005749400091113304,0.0,-0.000457993557036274
172.5,-0.005370257750249664,0.0003791423408636401,-0.00012424028131603196
173.0,-0.004978881606475086,0.000770518484638218,0.00020366078423064834
173.5,-0.004958289761977305,0.0007911103291359991,0.00014300792133712195
174.0,-0.005404189485435436,0.0003452106056778684,-0.00040216260785668823
174.5,-0.005168543713623029,0.0005808563774902754,-0.00028446351431155275
175.0,-0.004402033378820377,0.0013473667122929278,0.00034451863627560256
175.5,-0.004276744409389684,0.00147265568172362,0.00031164521713119447
176.0,-0.004202486568746788,0.0015469135223665168,0.00020599673529978738
176.5,-0.004332901498696551,0.0014164985924167532,-0.0001271570066576084
177.0,-0.004207363483456421,0.0015420366076568832,-0.00022818672947880463
177.5,-0.004145467411293276,0.0016039326798200281,-0.00041752521735885723
178.0,-0.003976825111271426,0.0017725749798418785,-0.0005254004153233652
178.5,-0.0032940059153134214,0.002455394175799883,-0.00014471563839729955
179.0,-0.00279267888529728,0.002956721205816024,2.8865189637309642e-05
179.5,-0.00247546752444506,0.0032739325666682442,-6.884588792284863e-06
180.0,-0.002595205277675764,0.0031541948134375403,-0.0005039631039551961
180.5,-0.0018763975168625924,0.003873002574250712,-0.00018556266815422879
181.0,-0.001207420439093523,0.004541979652019782,6.176135013472549e-05
181.5,-0.0009615616315204739,0.004787838459592831,-0.00013293101556972626
182.0,-0.0011137058383288599,0.0046356942527844445,-0.0007416436911232916
182.5,-0.0005013148210108602,0.005248085270102444,-0.0005984320076585035
183.0,-0.0004077912482541737,0.005341608842859131,-0.000982789198640012
183.5,0.0006257443848120371,0.006375144475925342,-0.00043146154540368506
184.0,0.0006858647871904693,0.006435264878303774,-0.0008530912834642567
184.5,0.0014378921510374196,0.0071872922421507245,-0.000577229502825025
185.0,0.002511384543279893,0.008260784634393198,3.106687934820683e-05
185.5,0.00342185975533974,0.009171259846453044,0.0004928630690967852
186.0,0.003708237692679382,0.009457637783792687,0.0003526825675993772
186.5,0.0035052273797273963,0.009254627470840701,-0.0002492196305665037
187.0,0.0035347750714376583,0.009284175162550963,-0.0005855271623281689
187.5,0.004744387716162523,0.010493787807275827,0.0002963419822724616
188.0,0.005167688617403519,0.010917088708516823,0.00043467466529218193
188.5,0.005290264745338165,0.011039664836451468,0.00031919991049098213
189.0,0.005914452742128234,0.011663852833241537,0.0007557749868796673
189.5,0.0060474417411972735,0.011796841832310577,0.0007544017581940059
190.0,0.006272558205014636,0.012021958296127941,0.0009004414752935529
190.5,0.005997707145062485,0.01174710723617579,0.0006030048174304938
191.0,0.005799060076542022,0.011548460167655327,0.0004386093379330422
191.5,0.005714964224088474,0.011464364315201779,0.00044507991291648646
192.0,0.005854161691161828,0.011603561782275132,0.000729781218238244
192.5,0.006089180072258081,0.011838580163371385,0.0011630432423908547
193.0,0.005616812763976905,0.01136621285509021,0.0009386968574497528
193.5,0.005654739327446192,0.011404139418559497,0.0012707678602621921
194.0,0.004756151209357869,0.010505551300471174,0.0007081922319315068
194.5,0.004049600627461921,0.009799000718575226,0.00037476735748947533
195.0,0.0030682970571455307,0.008817697148258835,-0.00020143979177708084
195.5,0.0013314047646396804,0.0070808048557529845,-0.0015066777244106813
196.0,0.001119849222471718,0.0068692493135850225,-0.0012655846334869965
196.5,0.0006758172716060001,0.006425217362719305,-0.0012415705196553986
197.0,0.00024296642668683455,0.0059923665178001385,-0.0011964952574499985
197.5,-0.0008776290565484282,0.004871771034564877,-0.0018346180595126887
198.0,-0.0007242444253645182,0.005025155665748786,-0.0011992700353558048
198.5,-0.001697934662108742,0.0040514654290045625,-0.0016962036158570124
199.0,-0.0024350468189400245,0.00331435327217328,-0.001966038475144006
199.5,-0.0024808606984570367,0.0032685393926562677,-0.0015578511115809301
200.0,-0.0019742428885794958,0.0037751572025338086,-0.0006137934231034625
200.5,-0.002798585360856875,0.0029508147302564295,-0.0010200112538142235
201.0,-0.0025921213546619614,0.003157278736451343,-0.0004169548972208729
201.5,-0.0028089740095322184,0.002940426081581086,-0.00026043584835167737
202.0,-0.0028823694233587865,0.002867030667754518,1.5140036136823427e-05
202.5,-0.003231630630240577,0.0025177694608727276,-1.0251748540447258e-05
203.0,-0.002835811857401192,0.0029135882337121125,0.0006840728107218009
203.5,-0.0024908784423006004,0.003258521648812704,0.001302281492108363
204.0,-0.0027781585376673414,0.002971241553445963,0.0012635250359958334
204.5,-0.0029525361498921854,0.002796863941221119,0.0013136926549170479
205.0,-0.0028166106442579514,0.002932789446855353,0.001651200480773798
205.5,-0.00363246416115142,0.0021169359299618843,0.0010151730640554739
206.0,-0.0029301276781749062,0.002819272412938398,0.0018769285161376582
206.5,-0.0031031930325340846,0.00264620705857922,0.0018443210537114172
207.0,-0.003029537724389809,0.0027198623667234953,0.0020409749392152608
207.5,-0.0028871208493700825,0.002862279241743222,0.0022904520303010027
208.0,-0.0028726353726631878,0.0028767647184501166,0.0023975680492668776
208.5,-0.0025684116911277688,0.0031809883999855356,0.0027814627347316607
209.0,-0.0028241028128810903,0.002925297278232214,0.00259389346891088
209.5,-0.0030984941352020425,0.002650905955911262,0.002377409168694266
210.0,-0.0025932065710561674,0.003156193520057137,0.0029316353388912286
210.5,-0.0031545808082549423,0.002594819282858362,0.002411382064928534
211.0,-0.002586152048235513,0.0031632480428777916,0.0030141651030217466
211.5,-0.003063547665783336,0.0026858524253299686,0.0025653071032968326
212.0,-0.00312524525883286,0.0026241548322804443,0.0025271809696174896
212.5,-0.003119630053930944,0.0026297700371823605,0.002552155879594264
213.0,-0.0029631889126347727,0.0027862111784785317,0.002724408240440165
213.5,-0.0029777525109448005,0.002771647580168504,0.0027226855728147673
214.0,-0.003133628018818609,0.0026157720722946956,0.002577180610608399
214.5,-0.0024600953131897734,0.003289304777923531,0.0032590422528987867
215.0,-0.0024304772064633008,0.0033189228846500036,0.0032953126113109315
215.5,-0.0023409197164412678,0.0034084803746720366,0.00339015390601667
216.0,-0.0020438355233511727,0.0037055645677621317,0.003691411894452656
216.5,-0.002295318232229228,0.0034540818588840766,0.0034432080900705466
217.0,-0.002179471431959673,0.0035699286591536314,0.003561616695630048
217.5,-0.0020542445658113077,0.0036951555253019967,0.00368883418628936
218.0,-0.0020641961713603343,0.00368520391975297,0.0036804209629835126
218.5,-0.0022687303076699456,0.003480669783443359,0.003477069259121508
219.0,-0.0022488433215623817,0.0035005567695509227,0.0034978601668673066
219.5,-0.0022037326410691183,0.003545667450044186,0.0035436581254696185
220.0,-0.0022492011108792894,0.003500198980234015,0.0034987093957180165
