wavelength,absorbance,absorbance_bk,residual_3gauss
117.0,0.9609665518201971,0.9617448629293814,-0.003860224703545856
117.5,0.9585844539556752,0.9593627650648595,0.001299234319193765
118.0,0.9472533762772057,0.9480316873863901,-0.0013986529932382696
118.5,0.9386312083596051,0.9394095194687895,-0.00033247260226021425
119.0,0.9271528160679201,0.9279311271771045,-0.0011089015670898705
119.5,0.9178566506464021,0.9186349617555865,0.0012637800978085867
120.0,0.9041623111422867,0.9049406222514711,0.000153093006311944
120.5,0.895070145922932,0.8958484570321164,0.004501757369230641
121.0,0.878881225733858,0.8796595368430423,0.002547415402621822
121.5,0.865507837567835,0.8662861486770194,0.004132824155389958
122.0,0.8483722028714568,0.8491505139806411,0.0026042228635136944
122.5,0.8305460716557386,0.8313243827649229,0.0009505306860210228
123.0,0.8134149219813255,0.8141932330905098,0.0004671131589195632
123.5,0.7961882274837171,0.7969665385929015,0.00026559433059192283
124.0,0.7775220319467827,0.7783003430559671,-0.0011040259017067733
124.5,0.7587854313687027,0.759563742477887,-0.002387321453163449
125.0,0.7400463007010736,0.7408246118102579,-0.003640084928285381
125.5,0.7226618155038702,0.7234401266130546,-0.0036380755513315544
126.0,0.704425518812243,0.7052038299214274,-0.0047300709644824135
126.5,0.6883293196222403,0.6891076307314247,-0.004075781484346175
127.0,0.6727640302118041,0.6735423413209884,-0.0034449599317677437
127.5,0.6583637413291171,0.6591420524383015,-0.0023723457568354256
128.0,0.6447286186837158,0.6455069297929001,-0.001433797954544569
128.5,0.6329551062364777,0.633733417345662,0.00028542721790314474
129.0,0.6218447689133957,0.62262308002258,0.001401537290661281
129.5,0.6125979073689468,0.6133762184781312,0.0029283749996830144
130.0,0.6041379810463038,0.6049162921554881,0.003604958656587942
130.5,0.5970231585976401,0.5978014697068245,0.003810711547215906
131.0,0.5927031584321091,0.5934814695412934,0.004826518433091342
131.5,0.5893801341197031,0.5901584452288875,0.004700309732455721
132.0,0.587784123031644,0.5885624341408283,0.004027605398410072
132.5,0.5884687756722425,0.5892470867814269,0.003252615977845763
133.0,0.5911176471968291,0.5918959583060135,0.001980029054133081
133.5,0.5959414004533896,0.596719711562574,0.0003776460357625133
134.0,0.6032724200337021,0.6040507311428864,-0.0012238423283837951
134.5,0.6120814126708071,0.6128597237799914,-0.0038095976903396167
135.0,0.6252484051147181,0.6260267162239025,-0.00440572493640079
135.5,0.6394559045564807,0.6402342156656651,-0.006183191311644132
136.0,0.6575137654080928,0.6582920765172772,-0.006131263922795838
136.5,0.6775487279073928,0.6783270390165772,-0.005867711270878262
137.0,0.7008154505713192,0.7015937616805036,-0.003829122753890135
137.5,0.7256006392281248,0.7263789503373091,-0.0013698726728255117
138.0,0.7509059605117961,0.7516842716209805,0.0009158864455940385
138.2,0.7597514968878807,0.760529807997065,0.00045743998511127426
138.4,0.76955853611757,0.7703368472267543,0.0009498197177739698
138.6,0.7800183643042693,0.7807966754134537,0.0021147954018760906
138.8,0.789560393716488,0.7903387048256724,0.002412833079441512
139.0,0.798844924224499,0.7996232353336834,0.0025357447665511623
139.2,0.8080062281768302,0.8087845392860146,0.0026496558384799807
139.4,0.8179003482959325,0.8186786594051169,0.0036426801071328674
139.6,0.8265767113822333,0.8273550224914177,0.003596405837001271
139.8,0.8354668760605377,0.8362451871697221,0.003974511427738081
140.0,0.843265783197133,0.8440440943063173,0.003503879921110342
140.2,0.8504694060347429,0.8512477171439272,0.002712109942228147
140.4,0.8580178513023213,0.8587961624115057,0.0025704749265362814
140.6,0.864486975043751,0.8652652861529354,0.0016853950012292174
140.8,0.8700947292113891,0.8708730403205734,0.00030463822043680366
141.0,0.8763773033532318,0.8771556144624162,-6.68383581881038e-06
141.2,0.8816180765197613,0.8823963876289457,-0.0009373102645634512
141.4,0.8859672239885008,0.8867455350976852,-0.0023103695116017953
141.6,0.8911397759771476,0.8919180870863319,-0.00238546457932054
141.8,0.895902785969903,0.8966810970790874,-0.002371646356891355
142.0,0.8992020985203489,0.8999804096295333,-0.0033007843925153546
142.2,0.9037876712230608,0.9045659823322452,-0.0024023795696508365
142.4,0.9064371674466111,0.9072154785557954,-0.0028801012186339126
142.6,0.909622737572081,0.9104010486812654,-0.0022451300124790574
142.8,0.9116650249678137,0.912443336076998,-0.0021622694768540507
143.0,0.9132984038402077,0.914076714949392,-0.0018848180023177674
143.2,0.9148572489947356,0.91563556010392,-0.0010684003196662628
143.4,0.9158235740987177,0.9166018852079021,-0.00022342080978421386
143.6,0.9149742363955305,0.9157525475047149,-0.0005679396310944718
143.8,0.9145965234244791,0.9153748345336634,0.00018784498362811597
144.0,0.9122424133877712,0.9130207244969556,-0.0004041989818018843
144.2,0.9109265146090216,0.911704825718206,0.0006677601263177513
144.4,0.9071535902533449,0.9079319013625292,-9.698444754002722e-05
144.6,0.9036774772683202,0.9044557883775045,4.7230607679527026e-05
144.8,0.8995175162264304,0.9002958273356148,0.00010887548703797378
145.0,0.8949812312626039,0.8957595423717882,0.000381932688529818
145.2,0.8898344931212293,0.8906128042304137,0.0006161050535506973
145.4,0.8849508787386419,0.8857291898478262,0.001666240776189154
145.6,0.8788722599512703,0.8796505710604546,0.002053008781927379
145.8,0.8716002424559569,0.8723785535651413,0.0017544462727023813
146.0,0.8646552156938855,0.8654335268030698,0.0022651396090737075
146.2,0.85644461927554,0.8572229303847244,0.0019646444424864518
146.4,0.8485321403977093,0.8493104515068937,0.00238685960687679
146.6,0.8393074916813411,0.8400858027905255,0.0018900039858980033
146.8,0.8298456969163995,0.8306240080255839,0.0015161233261107299
147.0,0.8202368439489677,0.821015155058152,0.001321085381834397
147.2,0.8093820131526788,0.8101603242618631,0.00017077062341641636
147.4,0.799290810678688,0.8000691217878724,3.888610926638947e-05
147.6,0.7881947146556445,0.7889730257648289,-0.0008793913009894627
147.8,0.7760835262931347,0.7768618374023191,-0.002630652842929626
148.0,0.7655898387963502,0.7663681499055346,-0.002618466761337035
148.2,0.7543659985438397,0.755144309653024,-0.003226087009252643
148.4,0.7434560495996394,0.7442343607088238,-0.003444174265669897
148.6,0.733432342421744,0.7342106535309284,-0.0027338523709586893
148.8,0.7233110814437945,0.7240893925529789,-0.002110829779646717
149.0,0.7132570556648842,0.7140353667740685,-0.0014403464352198414
149.2,0.7036015430699942,0.7043798541791786,-0.00041895998294982917
149.4,0.694133387062166,0.6949116981713503,0.0007168219976442236
149.6,0.6841297071066129,0.6849080182157973,0.0012215210390998932
149.8,0.6742199973983835,0.6749983085075678,0.001705027075376786
150.0,0.6639208978357478,0.6646992089449322,0.0016675775641906698
150.5,0.6404562128050125,0.6412345239141969,0.003204556043586382
151.0,0.6155363428771774,0.6163146539863618,0.0022858411860707806
151.5,0.5908257518779421,0.5916040629871264,0.000609517391781611
152.0,0.5672114614694781,0.5679897725786625,-0.0007712844898798421
152.5,0.5450833956390568,0.5458617067482412,-0.001187926014917462
153.0,0.5243568580160721,0.5251351691252565,-0.00036491951611639095
153.5,0.5030695897040429,0.5038479008132273,0.00013728783759703322
154.0,0.48097484910332183,0.4817531602125062,0.0004706025061765873
154.5,0.45699584327718856,0.4577741543863729,-9.14566538338657e-05
155.0,0.4323980391398425,0.43317635024902684,-2.2176628655445896e-05
155.5,0.40549003256596294,0.4062683436751473,-0.000872617978596113
156.0,0.3776863230167935,0.37846463412597786,-0.0012283166645375432
156.5,0.3489777745002832,0.3497560856094676,-0.0012439332517367174
157.0,0.31983063814802326,0.3206089492572076,-0.0007347013083497944
157.5,0.291495654366485,0.29227396547566936,0.0011553678868714834
158.0,0.2613327742624859,0.26211108537167027,0.0013110833760313079
158.5,0.2314180090614273,0.23219632017061162,0.0012919528793167712
159.0,0.20241845400012848,0.2031967651093128,0.0012478930513389053
159.5,0.17463474098425508,0.1754130520934394,0.0009996848004168168
160.0,0.14787520498164927,0.1486535160908336,-5.5180513951147425e-05
160.5,0.12380773790964573,0.12458604901883008,-0.0005678294058493738
161.0,0.10237696711075968,0.10315527821994402,-0.0008081110710396189
161.5,0.08350201853305649,0.08428032964224083,-0.0009641643332330835
162.0,0.06705126674260804,0.06782957785179239,-0.0011738836929243573
162.5,0.0535102817533232,0.05428859286250755,-0.0008701195145454296
163.0,0.04197559357339797,0.04275390468258231,-0.000804614086770919
163.5,0.03295864854843227,0.03373695965761662,-0.00026386450910655807
164.0,0.025757279956162525,0.02653559106534687,0.00028259808519805543
164.5,0.02007093018950129,0.020849241298685636,0.0007794806619732704
165.0,0.014830345512817363,0.015608656622001707,0.0004004401098437072
165.5,0.011476327548644196,0.01225463865782854,0.0008154155935400954
166.0,0.008233218816785027,0.009011529925969371,0.0004563532247593028
166.5,0.006452497432516704,0.007230808541701048,0.0008564065637891435
167.0,0.004801949566149934,0.005580260675334278,0.000837539014361159
167.5,0.003092243873893672,0.003870554983078016,0.0003376887837237656
168.0,0.001468349515629473,0.002246660624813817,-0.0003957384199547963
168.5,0.0010462574828425835,0.0018245685920269276,-0.00016620090923614192
169.0,0.0007900627899949693,0.0015683738991793135,5.2379716901671675e-05
169.5,0.000775104706123224,0.0015534158153075683,0.000382076069840317
170.0,0.0007676408261522747,0.0015459519353366188,0.0006236972906261066
170.5,0.0005775381245043314,0.0013558492336886755,0.0006121594066010419
171.0,-0.00011147423677375828,0.0006668368724105859,4.897263183281371e-05
171.5,-0.0002738653386832749,0.0005044457705010693,-2.802607643531056e-05
172.0,-0.0003830484911923332,0.00039526261799201093,-8.40274263553014e-05
172.5,-0.00041608660379930686,0.0003622245053850373,-9.090605923713373e-05
173.0,-0.0003499017399136896,0.0004284093692706545,-2.2658666287775494e-05
173.5,-0.00014373726299145997,0.0006345738461928841,0.00016268997289646206
174.0,-0.0007783111091843441,0.0,-0.0005156702385638257
174.5,-7.167416159183081e-05,0.0007066369475925133,0.00012308921969048754
175.0,-0.00014456405812159352,0.0006337470510627506,-4.3712466895566376e-05
175.5,4.216941138415496e-05,0.0008204805205684991,2.0467650190152944e-05
176.0,0.00015118897364886137,0.0009295000828332056,-2.484576098705138e-05
176.5,0.0007339428372903489,0.0015122539464746932,0.0003682512218636893
177.0,0.001162290270616365,0.0019406013798007092,0.0005677951225803199
177.5,0.0013929365883892954,0.0021712476975736398,0.0005265292083690568
178.0,0.001740271188337499,0.002518582297521843,0.0005548970946667197
178.5,0.002203737886658976,0.0029820489958433203,0.0006485872926107507
179.0,0.002787801907408127,0.003566113016592471,0.0008086926972957877
179.5,0.0035268753803634114,0.0043051864895477555,0.0010668440599953073
180.0,0.003419658546818704,0.004197969656003048,0.00041976949947776726
180.5,0.004312650561158482,0.005090961670342826,0.0007130266321877174
181.0,0.0050710828401924635,0.005849393949376808,0.000812151062524382
181.5,0.005322637702677228,0.006100948811861572,0.00034657324486075513
182.0,0.006041858139945588,0.006820169249129932,0.00029419782440115883
182.5,0.006610826955548065,0.0073891380647324095,4.2211604911772914e-05
183.0,0.0070874112479669136,0.007865722357151259,-0.00034459557319134124
183.5,0.008105865806515199,0.008884176915699543,-0.00022321393964737195
184.0,0.008537766244298618,0.009316077353482962,-0.0007115384573743756
184.5,0.009974330233531392,0.010752641342715736,-0.0002061821991198448
185.0,0.010873239281805254,0.011651550390989598,-0.00023586795635892333
185.5,0.011816587496181807,0.012594898605366152,-0.0002037695076549089
186.0,0.012365516181354104,0.013143827290538448,-0.0005332372075444528
186.5,0.01274210355749858,0.013520414666682924,-0.0009863277462762894
187.0,0.01359411710654473,0.014372428215729075,-0.0008995156365153474
187.5,0.01423630904637814,0.015014620155562484,-0.0009428875285848615
188.0,0.01558153432982264,0.016359845439006985,-0.00018951898578433227
188.5,0.01618564766994536,0.016963958779129706,-7.105479969556072e-05
189.0,0.016684164174833458,0.0174624752840178,5.851431439505769e-05
189.5,0.016782200596575897,0.017560511705760243,-8.75829807283901e-05
190.0,0.016664235986018912,0.017442547095203258,-0.0003194337212876
190.5,0.01687488439952796,0.017653195508712305,-8.986836809227877e-05
191.0,0.016221561472867588,0.016999872582051934,-0.000591889015285299
191.5,0.01720405605670407,0.017982367165888413,0.0006709180440050942
192.0,0.017423519675044085,0.018201830784228427,0.0012934973413405784
192.5,0.01652591247278542,0.017304223581969765,0.0009129990048232228
193.0,0.016333636303435223,0.017111947412619566,0.0013407321636755426
193.5,0.016035252781743437,0.01681356389092778,0.0017522785610734875
194.0,0.015041617996159716,0.01581992910534406,0.0015440783955657268
194.5,0.013945069152238363,0.014723380261422708,0.0012931018167162585
195.0,0.012031213425614206,0.01280952453479855,0.00026913369127098095
195.5,0.010436246563428621,0.011214557672612965,-0.00040742294879139544
196.0,0.009504637247317772,0.010282948356502116,-0.0004074091044139645
196.5,0.00818923167985051,0.008967542789034853,-0.0007924006804583897
197.0,0.0072029597614111165,0.00798127087059546,-0.0008626604828716692
197.5,0.0057012094532207765,0.006479520562405121,-0.0014744943756015436
198.0,0.0048471435496993485,0.005625454658883693,-0.001474742598074833
198.5,0.004163875422978328,0.004942186532162672,-0.0013484905842460196
199.0,0.0033687217880294935,0.004147032897213838,-0.0013847781707856032
199.5,0.0024913905727692543,0.0032697016819535985,-0.0015584426482717446
200.0,0.002579308213264959,0.003357619322449303,-0.0008248822013999109
200.5,0.001746146370056016,0.00252445747924036,-0.001071668750316803
201.0,0.001816375494468374,0.0025946866036527182,-0.00047417074990319975
201.5,0.0015238471075578,0.002302158216742144,-0.0002971718441587231
202.0,0.0012611410959178036,0.0020394522051021477,-0.00014573731252120288
202.5,0.0009614651031518456,0.0017397762123361896,-8.353053264511471e-05
203.0,0.001275459341585911,0.0020537704507702552,0.000543783066940714
203.5,0.0016468479900348836,0.002425159099219228,0.0011839931615415182
204.0,0.001439846710779304,0.0022181578199636483,0.00120557786202236
204.5,0.0018128619414750735,0.0025911730506594176,0.0017712525324501364
205.0,0.001564540297243762,0.0023428514064281064,0.0016838943231819682
205.5,0.0014551007907537567,0.002233411899938101,0.0017077754721550884
206.0,0.001801594857040396,0.0025799059662247404,0.0021637494222570123
206.5,0.0019048005194045913,0.0026831116285889354,0.002356094161878306
207.0,0.0017539300228454765,0.0025322411320298204,0.0022771894919900136
207.5,0.001558197378497837,0.0023365084876821813,0.002139071625441298
208.0,0.0018410360721142288,0.0026193471812985727,0.0024676521659829625
208.5,0.0018126195153828615,0.0025909306245672056,0.002475250877487385
209.0,0.0014830964224824405,0.0022614075316667844,0.002173851453141751
209.5,0.001459211986499112,0.002237523095683456,0.002171748494083905
210.0,0.0018588245170225903,0.0026371356262069345,0.0025880930693615314
210.5,0.001683587744450652,0.002461898853634996,0.0024256051793400003
211.0,0.0018308164157100869,0.002609127524894431,0.002582469269262011
211.5,0.0011121238483989915,0.0018904349575833356,0.0018710003633016002
212.0,0.0017594921847984425,0.002537803293982787,0.002523740805107529
212.5,0.0012472498926403247,0.002025561001824669,0.0020154616879132213
213.0,0.0009504266886618176,0.0017287377978461617,0.0017215389246892578
213.5,0.0012463697406014413,0.002024680849785785,0.002019587773896082
214.0,0.0012495036518923887,0.002027814761076733,0.0020242384214402757
214.5,0.001318098477034464,0.0020964095862188083,0.002093917056442922
215.0,0.0012724590996859623,0.0020507702088703064,0.002049046019533753
215.5,0.0014274548199271664,0.0022057659291115105,0.002204582144834158
216.0,0.0016848791145616868,0.002463190223746031,0.00246238354018151
216.5,0.001493913552930472,0.002272224662114816,0.0022716790589288913
217.0,0.001987738443737128,0.002766049552921472,0.002765683289406692
217.5,0.0019191525145356488,0.002697463623719993,0.0026972195879308206
218.0,0.0019732011130965737,0.002751512222280918,0.002751350839747686
218.5,0.0018054030920365604,0.0025837142012209045,0.002583608275183681
219.0,0.001654925835056938,0.002433236944241282,0.0024331679373954898
219.5,0.0018552569323207688,0.002633568041505113,0.0026335234219778806
220.0,0.0013207446967714964,0.0020990558059558405,0.0020990271706917444
