wavelength,absorbance,absorbance_bk,residual_3gauss
117.0,0.4794963411580502,0.4812573707441895,0.0027354322544303478
117.5,0.47717874994930143,0.47893977953544076,0.000471746728939737
118.0,0.47236988208375513,0.47413091166989446,-0.0033351384096276804
118.5,0.47170472141076136,0.4734657509969007,-0.0020622347639537297
119.0,0.4692009317970747,0.47096196138321406,-0.0017108779056704826
119.5,0.4649427891513752,0.46670381873751454,-0.0022229007846474302
120.0,0.4635899551842041,0.4653509847703434,0.0010280589015631003
120.5,0.45831258126228414,0.46007361084842346,0.0011716029655292615
121.0,0.45312241412752274,0.4548834437136621,0.002171638342685356
121.5,0.4455811606655492,0.44734219025168853,0.0015347203923811725
122.0,0.438689720438674,0.4404507500248133,0.002199283431954635
122.5,0.4313916598454847,0.43315268943162405,0.0030391353719024794
123.0,0.421211020374915,0.4229720499610543,0.001501314570943657
123.5,0.411068090626508,0.41282912021264734,0.0004219472858837947
124.0,0.40101071161709045,0.4027717412032298,-0.00024231270460511878
124.5,0.39129937646547946,0.3930604060516188,-0.00032898564160604993
125.0,0.38056300271076954,0.38232403229690887,-0.001313711199628087
125.5,0.37021557457424253,0.37197660416038186,-0.0018932182381908857
126.0,0.3597070021912112,0.36146803177735054,-0.0027339470178234238
126.5,0.350757143899148,0.35251817348528736,-0.0022373511978209804
127.0,0.3412934962737232,0.3430545258598625,-0.0026013477791080875
127.5,0.3333111818049563,0.3350722113910956,-0.0019592589299057828
128.0,0.32575905857408904,0.3275200881602284,-0.0014923979590852343
128.5,0.3196114549630608,0.32137248454920014,-0.0003567778916390707
129.0,0.31381689301223065,0.31557792259837,0.0002674323929797717
129.5,0.3091211882306909,0.31088221781683023,0.0010010943127796157
130.0,0.3055695309428956,0.3073305605290349,0.0017705235771962036
130.5,0.30299701557955105,0.3047580451656904,0.0023005953464771967
131.0,0.3014171868703052,0.30317821645644455,0.002506061307375018
131.5,0.3008660899499726,0.30262711953611193,0.0023385113529413304
132.0,0.30202733674378407,0.3037883663299234,0.002414421532311861
132.5,0.30407876632535374,0.3058397959114931,0.0018647795072896933
133.0,0.3075575632080004,0.3093185927941397,0.0012030508598647183
133.5,0.3129927883687956,0.31475381795493496,0.0009603289023897843
134.0,0.3190272082559516,0.32078823784209093,-0.00019056679008855326
134.5,0.32689704947459,0.3286580790607293,-0.0009535387611739332
135.0,0.33600219436236844,0.3377632239485078,-0.0018378130262989845
135.5,0.34635499635713224,0.34811602594327157,-0.002708627797688601
136.0,0.358033482461031,0.35979451204717033,-0.003334341455927037
136.5,0.3711999800439008,0.37296100963004014,-0.003369001521076498
137.0,0.3850668188391816,0.3868278484253209,-0.0033887769839925364
137.5,0.4005571897276148,0.4023182193137541,-0.0022341950602676186
138.0,0.41658192508896946,0.4183429546751088,-0.0007374060593266507
138.5,0.4329367471607148,0.4346977767468541,0.0011701180176866277
139.0,0.4486778029064191,0.45043883249255845,0.002827354720937647
139.5,0.46360557759767296,0.4653666071838123,0.004321185773085379
140.0,0.476397931894619,0.4781589614807583,0.0046124351658586304
140.5,0.48700124021093255,0.4887622697970719,0.003919654324052557
141.0,0.4950422403639328,0.4968032699500721,0.002123476278645009
141.5,0.501200157435429,0.5029611870215683,0.00013133496352091267
142.0,0.5054405834774608,0.5072016130636001,-0.001895719416230901
142.5,0.508551127310683,0.5103121568968223,-0.0030138344685348706
143.0,0.5105589584896252,0.5123199880757645,-0.0030844093088309155
143.5,0.5112231967129696,0.5129842262991089,-0.002286171170944429
144.0,0.5093629766177715,0.5111240062039109,-0.001790186972104424
144.5,0.5052039045785433,0.5069649341646826,-0.001414851602603906
145.0,0.4993950933075407,0.5011561228936801,-0.0006084538307534748
145.5,0.4920771269178355,0.49383815650397483,0.0006212024399633864
146.0,0.4833994008881902,0.48516043047432955,0.002228672764156614
146.5,0.4722212873679864,0.47398231695412574,0.0028387147605696272
147.0,0.458557034137908,0.4603180637240473,0.002199920148799217
147.5,0.4432386354702393,0.4449996650563786,0.000858156836414603
148.0,0.4267371942355877,0.42849822382172703,-0.0010100246648809263
148.5,0.41047398753362285,0.4122350171197622,-0.002273327486797594
149.0,0.3968600283982832,0.39862105798442254,-0.0007928604615924928
149.5,0.38322369984574545,0.3849847294318848,0.0005182841647061176
150.0,0.3693409805988228,0.37110201018496214,0.0012366862497367737
150.5,0.35514415599162613,0.35690518557776546,0.0011465105113578344
151.0,0.34080325760735347,0.3425642871934928,0.00032712182619570873
151.5,0.32665873251404753,0.32841976210018686,-0.000911735333271213
152.0,0.31315236710773214,0.3149133966938715,-0.0021005638120830117
152.5,0.30156400372302566,0.303325033309165,-0.0018790907644840593
153.0,0.2912072549568596,0.29296828454299895,-0.0008101150192239004
153.5,0.2812192196446521,0.2829802492307914,0.0003974170828200396
154.0,0.2708286581897128,0.27258968777585213,0.0011415307820400455
154.5,0.259253664629156,0.26101469421529533,0.000808790357070821
155.0,0.24776415306702596,0.24952518265316528,0.0008209860102708633
155.5,0.23563180220551896,0.2373928317916583,0.0005709384409563478
156.0,0.2224398705909179,0.22420090017705724,-0.0002789536489738731
156.5,0.20933044260536368,0.211091472191503,-0.0005569234283330227
157.0,0.19637975034370417,0.1981407799298435,-0.00020959276743229283
157.5,0.1834254678905325,0.18518649747667182,0.0005267536304843778
158.0,0.16987879938881767,0.171639828974957,0.0009438929460349466
158.5,0.1559103459575684,0.15767137554370772,0.0010566749792929875
159.0,0.14188626181055575,0.14364729139669508,0.0010508294276678765
159.5,0.12754770505291677,0.1293087346390561,0.0004753957836999001
160.0,0.11354567876583493,0.11530670835197425,-0.00020935078862911738
160.5,0.09989169192263885,0.10165272150877816,-0.0011691805932264182
161.0,0.08711945199435485,0.08888048158049416,-0.002024116871149645
161.5,0.07580647370096294,0.07756750328710225,-0.0023193367913555557
162.0,0.06613706536180713,0.06789809494794645,-0.0019576387700188103
162.5,0.05758362974468886,0.05934465933082818,-0.0015165590566156573
163.0,0.05028666794907265,0.05204769753521196,-0.0008694930840209558
163.5,0.04424864519646237,0.046009674782601685,4.804236814932861e-06
164.0,0.03894230033394826,0.04070332992008757,0.0006255197416359243
164.5,0.03468110371361351,0.03644213329975283,0.0013742381051869493
165.0,0.031153667293520527,0.032914696879659845,0.002022981732168451
165.5,0.028135803132058487,0.029896832718197805,0.0024400741739163297
166.0,0.0256926743252552,0.02745370391139452,0.002786695096493711
166.5,0.023374574112140774,0.025135603698280093,0.002707949508840915
167.0,0.02126128063500115,0.023022310221140468,0.0023735498332074154
167.5,0.019478462180680268,0.021239491766819586,0.001991616371487745
168.0,0.018232973856446087,0.019994003442585406,0.0018423723391284008
168.5,0.01732876645256251,0.01908979603870183,0.0017933230065641827
169.0,0.016224086784834692,0.01798511637097401,0.0013564294661575875
169.5,0.01549018752349926,0.01725121710963858,0.001147314050431461
170.0,0.014901443699467198,0.016662473285606515,0.0009762212584844623
170.5,0.01412175056221554,0.01588278014835486,0.0005354567569280447
171.0,0.01377734968637326,0.015538379272512576,0.0004733280097059672
171.5,0.012966985937893407,0.014728015524032724,-9.460301682026086e-05
172.0,0.012327866817094378,0.014088896403233696,-0.0005185459819297324
172.5,0.011799453008474887,0.013560482594614204,-0.0008497949258499792
173.0,0.01120121866263638,0.012962248248775697,-0.0012622051540583622
173.5,0.010849545482599875,0.012610575068739194,-0.0014346710972202303
174.0,0.010343613875582946,0.012104643461722263,-0.0017647327797384333
174.5,0.009929667074171939,0.011690696660311257,-0.002003920134414812
175.0,0.009777862048066422,0.011538891634205739,-0.0019806040245470644
175.5,0.009097692032987976,0.010858721619127293,-0.0024843516925267557
176.0,0.00904024501978748,0.010801274605926798,-0.002363506168441982
176.5,0.00890204514022671,0.010663074726366028,-0.0023212286944954835
177.0,0.008539586122413708,0.010300615708553024,-0.0025008833859521615
177.5,0.008411638478574214,0.010172668064713532,-0.0024436732156668355
178.0,0.00910086943388357,0.010861899020022887,-0.0015669811809347033
178.5,0.008560483434427744,0.010321513020567063,-0.0019177034717919959
179.0,0.008443936724039577,0.010204966310178896,-0.0018425172504545045
179.5,0.008200348804120796,0.009961378390260112,-0.001892457445068869
180.0,0.008433420242523516,0.010194449828662834,-0.0014639911472563074
180.5,0.008422834648373472,0.010183864234512788,-0.0012776104629334435
181.0,0.008189387412213922,0.00995041699835324,-0.0013127003173515495
181.5,0.007965620193391214,0.00972664977953053,-0.0013369016342203149
182.0,0.007682050983411063,0.00944308056955038,-0.0014198796672928171
182.5,0.007753841238562093,0.00951487082470141,-0.0011466557356532413
183.0,0.007943438115662994,0.009704467701802312,-0.0007549641640248808
183.5,0.007962098710758573,0.00972312829689789,-0.0005337274224902801
184.0,0.007730807439023866,0.009491837025163184,-0.000562138259675514
184.5,0.0075489736795407315,0.009310003265680048,-0.0005409616624546254
185.0,0.007909420527446134,0.00967045011358545,2.2454228028269754e-05
185.5,0.007619093150082063,0.00938012273622138,-6.511324157323396e-05
186.0,0.00773200605995839,0.009493035646097707,0.0002501862876088945
186.5,0.007823704382208172,0.00958473396834749,0.0005437376785020001
187.0,0.007746942274114637,0.009507971860253955,0.0006681389197469995
187.5,0.007664931668879712,0.00942596125501903,0.0007864500524605526
188.0,0.007474800445753373,0.00923583003189269,0.000795651506272933
188.5,0.007473344252012517,0.009234373838151833,0.0009923960714815563
189.0,0.007808193472955105,0.009569223059094422,0.001524176004389144
189.5,0.007447239624196669,0.009208269210335986,0.001358749540731976
190.0,0.007667782664937095,0.009428812251076411,0.0017732883163071164
190.5,0.007325513312840978,0.009086542898980296,0.0016233597757762874
191.0,0.007412523119593446,0.009173552705732764,0.0019009373289830406
191.5,0.007241548873426294,0.009002578459565612,0.0019186448213238429
192.0,0.0073476167457219325,0.00910864633186125,0.0022114007355174513
192.5,0.00701227725781072,0.008773306843950036,0.0020606532011290474
193.0,0.007246324713649353,0.009007354299788672,0.0024770994577898095
193.5,0.0069103332518739,0.008671362838013216,0.002321221925875241
194.0,0.007126139866834409,0.008887169452973727,0.0027147712345385894
194.5,0.006935662409762716,0.008696691995902034,0.002699584218560761
195.0,0.006655132344412584,0.008416161930551901,0.002591816658686713
195.5,0.006356825277618514,0.008117854863757832,0.002463673786245497
196.0,0.006083355188820746,0.007844384774960064,0.00235770447647187
196.5,0.005833107495718084,0.007594137081857402,0.002272234268079365
197.0,0.005858470838424116,0.007619500424563433,0.0024595970918653903
197.5,0.005553986589519247,0.007315016175658565,0.002314284716160674
198.0,0.005491479440410963,0.007252509026550281,0.002408077259968778
198.5,0.004427581675828322,0.0061886112619676395,0.0014975673860665277
199.0,0.0039089655639545735,0.005669995150093891,0.0011293926020240087
199.5,0.003564287310593632,0.00532531689673295,0.0009321791180026797
200.0,0.0028130833685386914,0.0045741129546780085,0.00032543805296906744
200.5,0.0023106021035319887,0.004071631689671306,-3.5603008813100794e-05
201.0,0.0018255136107182743,0.003586543196857592,-0.0003822903166330813
201.5,0.0016949772045332647,0.0034560067906725823,-0.00037747658410627275
202.0,0.0013989556199038055,0.0031599852060431232,-0.0005412069135159671
202.5,0.001041932581553102,0.00280296216769242,-0.0007690013564545552
203.0,0.0005382404362013013,0.002299270022340619,-0.0011465274155015139
203.5,-1.657032435278383e-05,0.0017444592617865337,-0.0015782306584848711
204.0,-0.00028997113827479475,0.0014710584478645227,-0.0017315749338707924
204.5,-0.000526189037632347,0.0012348405485069704,-0.0018507761775970709
205.0,-0.0009263291963180225,0.000834700389821295,-0.0021369251059965466
205.5,-0.0007351006345316104,0.001025928951607707,-0.0018347130669490962
206.0,-0.0009003348833958477,0.0008606947027434698,-0.0018919508524123077
206.5,-0.0009047201155532388,0.0008563094705860788,-0.0017913029777662528
207.0,-0.0009160912827503367,0.0008449383033889809,-0.00170057796857949
207.5,-0.0011248541933326734,0.0006361753928066441,-0.001810152587333966
208.0,-0.0003770841239749031,0.0013839454621644145,-0.0009660705940623348
208.5,-0.000721824196993072,0.0010392053891462457,-0.0012173412718887795
209.0,-0.0004907080448458321,0.0012703215412934853,-0.0008955622387399826
209.5,-0.0009571212072580464,0.0008039083788812712,-0.0012740809903358753
210.0,-0.0008037975402851331,0.0009572320458541844,-0.0010355914534713236
210.5,-0.0009166431857044768,0.0008443864004348407,-0.001065958097684927
211.0,-0.0008975261215907237,0.0008635034645485939,-0.0009670056258989283
211.5,-0.0008631875872897025,0.000897841998849615,-0.0008554305369896303
212.0,-0.0008409093514169888,0.0009201202347223288,-0.0007584685286766357
212.5,-0.0010368807125289178,0.0007241488736103997,-0.0008822616301586805
213.0,-0.0012767638178212849,0.0004842657683180327,-0.0010524236496489362
213.5,-0.0013692160514068644,0.00039181353473245317,-0.0010775626881761452
214.0,-0.001427191445535336,0.0003338381406039815,-0.001070582672847824
214.5,-0.001504316116151179,0.00025671346998813846,-0.0010850589108210254
215.0,-0.001381601464176173,0.00037942812196314446,-0.0009019514052341895
215.5,-0.001500250679888912,0.0002607789062504056,-0.0009624114703560827
216.0,-0.0015116660554463956,0.00024936353069292196,-0.0009177891508968048
216.5,-0.0013262904149825407,0.00043473917115677686,-0.0006784747548315554
217.0,-0.0014095872014855183,0.00035144238465379925,-0.0007098790388703981
217.5,-0.0017610295861393175,0.0,-0.001011422412205784
218.0,-0.0013873821361359252,0.00037364745000339236,-0.0005898166945050648
218.5,-0.0012978571300969756,0.0004631724560423419,-0.00045422151726167044
219.0,-0.0013216787850894886,0.0004393508010498289,-0.0004338086324777677
219.5,-0.001430639411477507,0.00033039017466181047,-0.0005003181449212205
220.0,-0.00148054262111548,0.00028048696502383746,-0.0005095017934758904
