wavelength,absorbance,absorbance_bk,residual_3gauss
117.0,0.5788652870647557,0.5780296486912572,0.0037895806526372366
117.5,0.5720626636471311,0.5712270252736326,-0.0029908024219428286
118.0,0.572048608419738,0.5712129700462395,-0.0018637998196300298
118.5,0.5712202022723861,0.5703845638988876,-0.0004456499394793756
119.0,0.5679275990883296,0.567091960714831,-0.0004075049074639958
119.5,0.5621437731209321,0.5613081347474336,-0.001805791288501002
120.0,0.5592349581509262,0.5583993197774276,0.0006881461218039009
120.5,0.5500963051622354,0.5492606667887369,-0.002076360321763837
121.0,0.5469699506271544,0.5461343122536558,0.0020887216826606103
121.5,0.5387064040936089,0.5378707657201104,0.0019714806355646264
122.0,0.5304669049712097,0.5296312665977112,0.0026623999909992646
122.5,0.5187145959783679,0.5178789576048693,0.0005455284749449341
123.0,0.5107540040217029,0.5099183656482044,0.0028379774199108754
123.5,0.4980071438252428,0.49717150545174427,0.0008660687927198873
124.0,0.48670613716368194,0.4858704987901834,0.0007580393077317171
124.5,0.47453588787446493,0.4737002495009664,8.685786781464921e-05
125.0,0.4623031176858421,0.46146747931234355,-0.00046051689223330916
125.5,0.4493799755050257,0.44854433713152714,-0.001639200040305766
126.0,0.43664445111032607,0.43580881273682753,-0.0027055034663286404
126.5,0.4253114320790499,0.4244757937055514,-0.0025852462768065076
127.0,0.4142757738987329,0.41344013552523434,-0.0025298469748187835
127.5,0.4032117853368944,0.40237614696339585,-0.0030157595407807603
128.0,0.3951483118231184,0.39431267344961984,-0.0011680367021915106
128.5,0.38669503785862336,0.3858593994851248,-0.0005323697673247918
129.0,0.3791132356938811,0.3782775973203826,-2.3553146272781156e-06
129.5,0.3722739253355488,0.3714382869620503,0.0001409886757552936
130.0,0.36787570510510065,0.3670400667316021,0.0014497157112213777
130.5,0.36428769930488175,0.3634520609313832,0.002154882550527426
131.0,0.3620265601945249,0.36119092182102636,0.002646821950542777
131.5,0.3610937998873384,0.3602581615138399,0.002815976677248422
132.0,0.3614317102589242,0.36059607188542564,0.002512476307336531
132.5,0.3639435722552967,0.3631079338817982,0.0025700604472674304
133.0,0.3672518368377398,0.3664161984642413,0.0015679129143281734
133.5,0.3729244582798364,0.37208881990633785,0.0010604525663568953
134.0,0.380140274400272,0.37930463602677345,0.00024582696830538486
134.5,0.38879356413496075,0.3879579257614622,-0.0009269171715954871
135.0,0.3995166204000993,0.39868098202660074,-0.0017333069290187408
135.5,0.4114130571234072,0.41057741874990866,-0.002938992897472348
136.0,0.4252517213006457,0.42441608292714716,-0.003605643485160681
136.5,0.44035402453359423,0.4395183861600957,-0.004204486144909536
137.0,0.45726298624217193,0.4564273478686734,-0.003949290650410775
137.5,0.4758478065007024,0.47501216812720387,-0.002695027365153979
138.0,0.49506098082076583,0.4942253424472673,-0.0011851970930917277
138.5,0.5153612715279802,0.5145256331544816,0.0013655190781500792
139.0,0.5346760216074269,0.5338403832339284,0.0032268605036530618
139.5,0.5529629520572545,0.552127313683756,0.004707111558783783
140.0,0.5693080742369376,0.5684724358634391,0.005242559155062776
140.5,0.5833773569953232,0.5825417186218247,0.004840141998296521
141.0,0.5942604463344068,0.5934248079609082,0.002911844508068473
141.5,0.6023524890789865,0.601516850705488,0.00014717206046022113
142.0,0.6088025970014865,0.607966958627988,-0.0020474472626195173
142.5,0.6138031273454023,0.6129674889719038,-0.003267832728101383
143.0,0.6169180681724643,0.6160824297989658,-0.003791168149726576
143.5,0.6183470847634355,0.6175114463899369,-0.003318170112935448
144.0,0.6173289858917465,0.6164933475182479,-0.002574212771701556
144.5,0.6138474716689224,0.6130118332954239,-0.001606226214139972
145.0,0.6081514030849601,0.6073157647114615,-0.00026283487410394546
145.5,0.6000406123424773,0.5992049739689788,0.0010935303347776593
146.0,0.5897875362335452,0.5889518978600466,0.002513005810686808
146.5,0.5765960730453141,0.5757604346718156,0.0029246343141775544
147.0,0.5607106000464926,0.5598749616729941,0.0022555545402187516
147.5,0.5431594246244896,0.5423237862509911,0.0011870998042404768
148.0,0.5237387786254817,0.5229031402519831,-0.0008464887424621814
148.5,0.5051074585855996,0.504271820212101,-0.0015472410791912417
149.0,0.48797110065245103,0.4871354622789525,-0.0005523528578222914
149.5,0.47070577014242393,0.4698701317689254,0.00020589589106240203
150.0,0.4530047401353811,0.4521691017618826,0.00016196154815367736
150.5,0.4364785527043895,0.435642914330891,0.0007295397596139841
151.0,0.41952050986236966,0.4186848714888711,0.00017581130527094535
151.5,0.40325345396902895,0.4024178155955304,-0.0004276115526680724
152.0,0.38686662035130426,0.3860309819778057,-0.0018688550900962664
152.5,0.3724478175070087,0.3716121791335102,-0.001970010162505753
153.0,0.35983571432741446,0.3590000759539159,-0.0007463574766771175
153.5,0.3472692754686928,0.34643363709519426,0.00022721778302603468
154.0,0.3346216094833491,0.3337859711098506,0.0010311077855613693
154.5,0.3209402926961081,0.32010465432260954,0.0009207987939269802
155.0,0.30688637974131566,0.3060507413678171,0.0007456137881225455
155.5,0.2923709153771115,0.291535277003613,0.0005669955173772667
156.0,0.2770688321989542,0.27623319382545564,0.0001578378302052319
156.5,0.26111897438423953,0.260283336010741,-0.00030713006707028256
157.0,0.2451721586287486,0.24433652025525007,-0.00020723135877429022
157.5,0.229249398730498,0.22841376035699945,0.00038430684430787454
158.0,0.2128707676206758,0.21203512924717727,0.0008366020322624901
158.5,0.19628104309388897,0.19544540472039043,0.0011986726819874782
159.0,0.17886784771196806,0.17803220933846953,0.0006326719588065077
159.5,0.16224918528991195,0.1614135469164134,0.0005181271425922507
160.0,0.14539047758903215,0.1445548392155336,-0.00041433020833786527
160.5,0.12962583510556897,0.12879019673207043,-0.0010464918646754529
161.0,0.11477617160556884,0.1139405332320703,-0.0017419451047598206
161.5,0.10110476158597376,0.10026912321247522,-0.002381499369658424
162.0,0.08958718705606172,0.08875154868256319,-0.002088098306310543
162.5,0.0790360777261531,0.07820043935265457,-0.0021007708331954172
163.0,0.07086851006601659,0.07003287169251805,-0.0010093542575661807
163.5,0.06353737423801825,0.06270173586451971,-0.0003280139790279024
164.0,0.05775540993464976,0.056919771561151224,0.0007219615305540661
164.5,0.05276399477704114,0.051928356403542604,0.0014730371304714288
165.0,0.04870566235542097,0.04787002398192243,0.0021757647040933775
165.5,0.04538088565882043,0.044545247285321894,0.002747791583146253
166.0,0.042657665383419086,0.04182202700992055,0.0031765934084914335
166.5,0.040592381712269705,0.03975674333877117,0.00363471284316947
167.0,0.03856116879816111,0.037725530424662576,0.003606907312220013
167.5,0.03655425587767879,0.035718617504180254,0.0031816412521142937
168.0,0.034792568648578104,0.033956930275079567,0.0026660927395068534
168.5,0.03336975669592116,0.032534118322422624,0.0022276417959199712
169.0,0.03237760946334756,0.031541971089849026,0.0020195679809986086
169.5,0.031492369724542134,0.030656731351043597,0.001768227029112411
170.0,0.030760142455073403,0.029924504081574866,0.0015596846289496584
170.5,0.02990999511872249,0.02907435674522395,0.001154217874151365
171.0,0.028895132421736785,0.028059494048238248,0.0005289231994658437
171.5,0.027910043457388487,0.02707440508388995,-0.0001037737202566405
172.0,0.02730903846358578,0.026473400090087244,-0.00037635345871702905
172.5,0.02672914831077265,0.02589350993727411,-0.0006422438153067811
173.0,0.024908811528194477,0.02407317315469594,-0.0021562508576084584
173.5,0.024596719799814492,0.023761081426315955,-0.0021650019944092665
174.0,0.023771917617821832,0.022936279244323295,-0.0026862882113144956
174.5,0.02284294949750538,0.02200731112400684,-0.003309489913008154
175.0,0.02228065593811544,0.021445017564616902,-0.0035624617779060203
175.5,0.022009084170838328,0.02117344579733979,-0.0035203883577981446
176.0,0.021887305266711437,0.0210516668932129,-0.0033237991972447437
176.5,0.021210648875810013,0.020375010502311476,-0.0036772157244138078
177.0,0.021035140318887834,0.020199501945389296,-0.003524631953844233
177.5,0.02101710290043484,0.020181464526936303,-0.0032098558695205504
178.0,0.020306971730770063,0.019471333357271525,-0.003582657487011455
178.5,0.020256590744115687,0.01942095237061715,-0.0032914462657988863
179.0,0.02011671010175751,0.019281071728258974,-0.0030857566549446665
179.5,0.01977473065554828,0.018939092282049742,-0.0030784922830885374
180.0,0.01960243048232468,0.018766792108826143,-0.0028981918541141453
180.5,0.019566123405017368,0.01873048503151883,-0.0025788655337711415
181.0,0.019293907043757327,0.01845826867025879,-0.0024927434216379073
181.5,0.019399970329641143,0.018564331956142606,-0.0020259656103092383
182.0,0.018581673481264663,0.017746035107766126,-0.0024815004645354216
182.5,0.018693724544028702,0.017858086170530165,-0.0020049667836268686
183.0,0.018784793119894835,0.017949154746396297,-0.0015480190675914544
183.5,0.018904783325205746,0.01806914495170721,-0.0010610737521790682
184.0,0.019116839303991957,0.01828120093049342,-0.0004813030231852894
184.5,0.01930653903583981,0.018470900662341274,7.655956895847096e-05
185.0,0.01913068800364074,0.018295049630142203,0.00026901328528012095
185.5,0.01907236264290138,0.018236724269402843,0.0005788341032708158
186.0,0.01940489565633416,0.01856925728283562,0.0012790604452167856
186.5,0.019214323634846313,0.018378685261347776,0.0014554411779101294
187.0,0.01961556924371517,0.01877993087021663,0.0022226181470225807
187.5,0.019452427776891216,0.01861678940339268,0.002424113051999955
188.0,0.01934253322094052,0.018506894847441984,0.002677293804882047
188.5,0.018968432415117358,0.01813279404161882,0.002664448960773431
189.0,0.01914560468058276,0.018309966307084223,0.0032008075937974834
189.5,0.019170822310792427,0.01833518393729389,0.0035829000111145676
190.0,0.01907280060616992,0.018237162232671383,0.003839207988525096
190.5,0.018820354223276128,0.01798471584977759,0.003938321298190023
191.0,0.018660206076076637,0.0178245677025781,0.004126746766355797
191.5,0.018072576164741946,0.01723693779124341,0.003884497236797891
192.0,0.01759199824521825,0.016756359871719712,0.0037459083535134937
192.5,0.0174949218670008,0.016659283493502264,0.0039872406904141
193.0,0.01732054500481356,0.01648490663131502,0.00414751245407383
193.5,0.01676924266293284,0.015933604289434303,0.00392692813866068
194.0,0.016587556519409886,0.01575191814591135,0.004071868200734423
194.5,0.016186338942477504,0.015350700568978965,0.003993033086664629
195.0,0.015414381122470372,0.014578742748971833,0.0035390713565055243
195.5,0.014691557546370247,0.013855919172871708,0.0031297241319833986
196.0,0.014008457611611447,0.013172819238112908,0.00275545666581181
196.5,0.013063497949605936,0.012227859576107397,0.0021145706034068953
197.0,0.012153425994377355,0.011317787620878816,0.0015037074730356575
197.5,0.011452888676954544,0.010617250303456005,0.0010974172857192953
198.0,0.011011438361658231,0.010175799988159692,0.0009451643617218279
198.5,0.009900032732041982,0.009064394358543443,0.00011782709210403364
199.0,0.009455538266537172,0.008619899893038633,-4.779872386923359e-05
199.5,0.008852198511894744,0.008016560138396205,-0.00037753175662076643
200.0,0.008311908848865145,0.007476270475366606,-0.0006495305442418484
200.5,0.008069913975688923,0.0072342756021903844,-0.0006285961842105135
201.0,0.007586509910494789,0.00675087153699625,-0.0008544705169631767
201.5,0.007153692620473372,0.006318054246974833,-0.0010351876926589171
202.0,0.006644336400406625,0.005808698026908086,-0.0012978959977615482
202.5,0.006001861371049158,0.005166222997550619,-0.0016991905701483068
203.0,0.005851336141094815,0.005015697767596276,-0.0016140109582196728
203.5,0.0057967855772360155,0.0049611472037374765,-0.0014383335787157064
204.0,0.005561529783017862,0.004725891409519323,-0.0014488329717572595
204.5,0.004826596947022296,0.003990958573523757,-0.001964469191806855
205.0,0.0051494838876132,0.004313845514114661,-0.001427727506560261
205.5,0.005068498968309226,0.0042328605948106866,-0.001300275728957725
206.0,0.004464401131875596,0.0036287627583770576,-0.0017013254334951734
206.5,0.004496901505090757,0.003661263131592218,-0.0014711306041685717
207.0,0.004609794790122148,0.003774156416623609,-0.0011658564974254024
207.5,0.004130969701413019,0.00329533132791448,-0.0014575694605503393
208.0,0.004064334935687318,0.003228696562188779,-0.0013423112172291332
208.5,0.003919959937374863,0.0030843215638763247,-0.001309958357362926
209.0,0.0033117782576559305,0.002476139884157392,-0.0017465192323327808
209.5,0.003106397590167384,0.0022707592166688454,-0.0017853241720967102
210.0,0.003085217946991644,0.0022495795734931053,-0.0016449075599486683
210.5,0.002548313061800057,0.0017126746883015182,-0.0020251266775458084
211.0,0.002830525744814434,0.0019948873713158954,-0.0015910665950457986
211.5,0.002527182669610447,0.0016915442961119086,-0.0017473256258643223
212.0,0.002248284141563814,0.0014126457680652756,-0.0018838257958141338
212.5,0.002273037010493676,0.0014373986369951375,-0.0017212801636624876
213.0,0.0020927747074692463,0.0012571363339707077,-0.0017682730127609432
213.5,0.00199357828523848,0.0011579399117399415,-0.0017386390339379897
214.0,0.001582826643636496,0.0007471882701379572,-0.002024913317974732
214.5,0.0021099548971830703,0.0012743165236845317,-0.0013775732001611056
215.0,0.002004716515071876,0.0011690781415733373,-0.0013667763264652035
215.5,0.00176201587606446,0.0009263775025659212,-0.0014975282985659976
216.0,0.0014895205084720048,0.000653882134973466,-0.001662070627357402
216.5,0.0017168601191417602,0.0008812217456432215,-0.0013306818908248607
217.0,0.00170428605969718,0.0008686476861986414,-0.0012430184478900057
217.5,0.0013486292376618779,0.0005129908641633391,-0.0015021567004636855
218.0,0.0013833726037326243,0.0005477342302340856,-0.001374520772337671
218.5,0.0013782701742951267,0.000542631800796588,-0.0012902636457411067
219.0,0.0013597373336356878,0.0005240989601371491,-0.0012228770110518901
219.5,0.0011979597788159013,0.00036232140531736255,-0.0013020824666616746
220.0,0.0008356383734985387,0.0,-0.00158508680269382
