wavelength,absorbance,absorbance_bk,residual_3gauss
117.0,0.40431095027830183,0.40567846887673525,-0.00046821843043493017
117.5,0.40230450226020725,0.4036720208586407,-0.0005259330525373973
118.0,0.3986632127334429,0.40003073133187633,-0.0015914675215369933
118.5,0.3953494986760164,0.3967170172744498,-0.0017176570600682672
119.0,0.3930250939359271,0.39439261253436053,-0.00026170101397265944
119.5,0.38937486836356655,0.390742386962,0.00043859533793033645
120.0,0.3861313728786353,0.38749889147706873,0.002089294600388536
120.5,0.37927984373922474,0.38064736233765817,0.0006452463169483447
121.0,0.37477759662223104,0.37614511522066446,0.0020293789369584814
121.5,0.368681878346694,0.37004939694512745,0.002260430718433737
122.0,0.36230109592687165,0.3636686145253051,0.0026040390355048237
122.5,0.35425234171896347,0.3556198603173969,0.0016301087238168033
123.0,0.34608552308807133,0.34745304168650476,0.0008367723613825762
123.5,0.3383205756352731,0.33968809423370655,0.0006874290974611119
124.0,0.32889838611681943,0.33026590471525286,-0.0009385007149104729
124.5,0.32076396888566383,0.32213148748409726,-0.0011625462250666185
125.0,0.31221444723828184,0.31358196583671527,-0.0017593116098755246
125.5,0.3029380678104298,0.30430558640886324,-0.003117505025426792
126.0,0.29581138007678476,0.2971788986752182,-0.002442711824515109
126.5,0.28815014662374094,0.28951766522217437,-0.0025063159726838036
127.0,0.2808774341727201,0.2822449527711535,-0.0024770869120246952
127.5,0.27392386237008903,0.27529138096852246,-0.0025204210036050556
128.0,0.26840052476977,0.2697680433682034,-0.0016246898710021718
128.5,0.26369527203644805,0.2650627906348815,-0.0005039750128930653
129.0,0.2595002298966529,0.2608677484950863,0.0004307094418658508
129.5,0.2558924389313873,0.2572599575298207,0.0011536109429733377
130.0,0.2535313672606872,0.2548988858591206,0.002223608485216799
130.5,0.25122884961896097,0.2525963682173944,0.0023563066810443623
131.0,0.25022205215828236,0.2515895707567158,0.0026994328500801745
131.5,0.250688183423632,0.25205570202206545,0.0033502199363264484
132.0,0.2510238183312247,0.25239133692965815,0.0026375859766104848
132.5,0.25278768458483486,0.2541552031832683,0.0020678845755293662
133.0,0.25652110435239134,0.25788862295082476,0.0021483260088526746
133.5,0.2604158635557613,0.2617833821541947,0.0010577317222854599
134.0,0.2654542218658338,0.2668217404642672,-0.00021078756508474683
134.5,0.2721840093696597,0.2735515279680931,-0.0010724160327141852
135.0,0.280281416177746,0.2816489347761794,-0.0017860082756442353
135.5,0.28894812636035727,0.2903156449587907,-0.003055737197292574
136.0,0.2993689468977019,0.3007364654961353,-0.0035729860522723533
136.5,0.31107666499691244,0.31244418359534587,-0.0036518565046571028
137.0,0.3241397296976815,0.32550724829611494,-0.0030427777032887016
137.5,0.33806569157816996,0.3394332101766034,-0.002031332869083635
138.0,0.35258213429634633,0.35394965289477975,-0.0006605842643559456
138.2,0.35779165835997645,0.3591591769584099,-0.0007191024179450389
138.4,0.36367359988764286,0.3650411184860763,-8.62081760443778e-05
138.6,0.36919244621896224,0.37055996481739567,0.0002193790428826059
138.8,0.37492378291907297,0.3762913015175064,0.0007902572174435241
139.0,0.38081732104517607,0.3821848396436095,0.0015933045348953678
139.2,0.3860435770557962,0.38741109565422965,0.0018162922670612036
139.4,0.3912226387636657,0.3925901573620991,0.002096581392207475
139.6,0.396229121629409,0.3975966402278424,0.0023260075592734797
139.8,0.40100238163021057,0.402369900228644,0.002461020944624026
140.0,0.405221987951309,0.4065895065497424,0.002198084580134485
140.2,0.4090387592797089,0.4104062778781423,0.001704635276064681
140.4,0.4132117387678146,0.414579257366248,0.0017559825618628788
140.6,0.4165747510175882,0.4179422696160216,0.0012017893605492103
140.8,0.42012958013694546,0.4214970987353789,0.0010591738214644209
141.0,0.42285746361543886,0.4242249822138723,0.0003241274381293735
141.2,0.4256514631887546,0.427018981787188,-9.618899422814131e-05
141.4,0.42836350876722257,0.429731027365656,-0.0003364751168422053
141.6,0.430638394764758,0.43200591336319144,-0.000739366711810352
141.8,0.4322808543398812,0.43364837293831465,-0.001488431464857054
142.0,0.43444550274048904,0.43581302133892247,-0.0014182931955734612
142.2,0.4357465234611781,0.4371140420596115,-0.00190501044408109
142.4,0.43718923838261936,0.4385567569810528,-0.001934567838978385
142.6,0.4384250808784821,0.4397925994769155,-0.0018479608515585277
142.8,0.4392183442481525,0.4405858628465859,-0.0018745011640175502
143.0,0.4399871954529593,0.4413547140513927,-0.0015908522546872472
143.2,0.4405825521253878,0.44195007072382125,-0.0011421968057115928
143.4,0.44030166962817113,0.44166918822660456,-0.0012286887248515455
143.6,0.44024383374995973,0.44161135234839316,-0.0007497937568000657
143.8,0.4397945086624613,0.4411620272608947,-0.0003201686149939542
144.0,0.438920787958014,0.4402883065564474,2.576963447248337e-05
144.2,0.43773472639224326,0.4391022449906767,0.000397162014558361
144.4,0.43624838144709616,0.4376159000455296,0.0008017434740112406
144.6,0.4338483194404949,0.4352158380389283,0.000620351296809929
144.8,0.4317368544449189,0.4331043730433523,0.00104817479047431
145.0,0.4289910936177784,0.4303586122162118,0.0011538202860534863
145.2,0.42574388319755274,0.42711140179598617,0.0010602861121313256
145.4,0.42253960911027216,0.4239071277087056,0.001300801864954182
145.6,0.4189006894231197,0.4202682080215531,0.0013853695475037897
145.8,0.41485445410120264,0.41622197269963607,0.0013277023160027102
146.0,0.4108734315323778,0.41224095013081125,0.0015855805141616885
146.2,0.4061574135364016,0.40752493213483504,0.0013429968453974594
146.4,0.4010455761766434,0.4024130947750768,0.0009223680383699251
146.6,0.39622127254196227,0.3975887911403957,0.0009894290979460263
146.8,0.39067464319541273,0.39204216179384616,0.0005159556342642646
147.0,0.38505141838995854,0.38641893698839197,0.00012868802210469488
147.2,0.37938025666819863,0.38074777526663206,-0.00016319849881252235
147.4,0.3739249504949865,0.3752924690934199,-0.00011574781153078639
147.6,0.3678952126405072,0.3692627312389406,-0.0005392881399050031
147.8,0.36138923177743937,0.3627567503758728,-0.0013557210833134992
148.0,0.35561143029725045,0.3569789488956839,-0.00138060270742002
148.2,0.34930071829123494,0.35066823688966836,-0.0018947241845768126
148.4,0.3432700820170342,0.3446376006154676,-0.002104355292868787
148.6,0.3379328946006527,0.3393004131990861,-0.0016147648345581356
148.8,0.33236979697919417,0.3337373155776276,-0.001363171945617636
149.0,0.3269851381617051,0.32835265676013853,-0.0009621413413742341
149.2,0.32163117058934454,0.32299868918777797,-0.0005752289584100012
149.4,0.31655860416628123,0.31792612276471466,3.3723250459305465e-05
149.6,0.3117751039781263,0.3131426225765597,0.0008592260075594438
149.8,0.30623104667169787,0.3075985652701313,0.0008400274778669337
150.0,0.3008403926512162,0.30220791124964963,0.0008800989238862411
150.5,0.28751230355553664,0.28887982215397007,0.0006673013824504692
151.0,0.2750000300302933,0.2763675486287267,0.0005569413448827665
151.5,0.2633793840550996,0.264746902653533,0.0006201336887332043
152.0,0.2520258743651462,0.2533933929635796,0.00029910285860496044
152.5,0.2412654731495444,0.24263299174797784,4.942420094253275e-05
153.0,0.23124687812026132,0.23261439671869474,0.0001979203090764492
153.5,0.22150523063476288,0.2228727492331963,0.00048726217647387937
154.0,0.2113917827799576,0.21275930137839102,0.00048349649989284926
154.5,0.2007832861304832,0.20215080472891664,0.00026246697608584
155.0,0.18946961335718737,0.1908371319556208,-0.000223957428947541
155.5,0.17782418318933796,0.17919170178777138,-0.0004949792021531896
156.0,0.1655961430021524,0.16696366160058582,-0.0007604591959855522
156.5,0.15308297033314144,0.15445048893157487,-0.0007531307699241707
157.0,0.14030612525207953,0.14167364385051295,-0.0005504517903438255
157.5,0.12753940990195223,0.12890692850038565,-3.696455870508264e-05
158.0,0.1145504579328634,0.11591797653129682,0.00035194146335901233
158.5,0.10143830520003848,0.10280582379847189,0.0004859140835361958
159.0,0.08869652174487352,0.09006404034330694,0.0006224490799965898
159.5,0.07619767765716948,0.07756519625560289,0.00041021066642196735
160.0,0.06441829502751653,0.06578581362594994,0.00013012279543697658
160.5,0.053642383610453315,0.055009902208886734,-8.90470540519106e-05
161.0,0.043995489393478325,0.045363007991911744,-0.0002294230178673598
161.5,0.035377365712526795,0.036744884310960214,-0.0004490555666955831
162.0,0.0281348545111104,0.029502373109543817,-0.0004111876536233676
162.5,0.021838058090972955,0.02320557668940637,-0.0005137688530706466
163.0,0.017064113953689345,0.01843163255212276,-0.00011376288934060105
163.5,0.013177076895392272,0.014544595493825687,0.00024345171342627682
164.0,0.009758290018026194,0.01112580861645961,0.00024506211003680854
164.5,0.007175789297574262,0.008543307896007678,0.00037160455620168474
165.0,0.005390947645793179,0.006758466244226595,0.0006963595931027394
165.5,0.00405551487463872,0.005423033473072136,0.0009768351988880715
166.0,0.0027150434113120086,0.004082562009745425,0.0008543953665701939
166.5,0.0017123538544067357,0.0030798724528401517,0.0007555599613981836
167.0,0.0009275916532478368,0.0022951102516812526,0.0006312700964892233
167.5,0.0005840629232550986,0.0019515815216885144,0.0007629864234225397
168.0,0.0002327688382635113,0.0016002874366969273,0.0007482102420981094
168.5,-0.0003734993650018834,0.0009940192334315326,0.0003759904837978738
169.0,-0.0005066069596654741,0.0008609116387679419,0.000402069373281568
169.5,-0.0004344857494790963,0.0009330328489543197,0.0005790630834589796
170.0,-0.0006315145887139233,0.0007360040097194926,0.00044755010878149814
170.5,-0.0007489260573242053,0.0006185925411092107,0.0003669445493561687
171.0,-0.0006509245484088573,0.0007165940500245587,0.00048044309141428564
171.5,-0.0008684709058983227,0.0004990476925350933,0.00026209334488330624
172.0,-0.0010251461283962667,0.00034237247003714925,9.159142564341214e-05
172.5,-0.0011837483904388643,0.0001837702079945517,-9.18163598310457e-05
173.0,-0.0011865571379997008,0.00018096146043371513,-0.00012923005029219964
173.5,-0.0012104721134099208,0.0001570464850234952,-0.00019696894105492247
174.0,-0.0013174898722433217,5.002872619009431e-05,-0.0003568576483446808
174.5,-0.0010829333290502104,0.0002845852693832056,-0.00018431981736133368
175.0,-0.001367518598433416,0.0,-0.0005403473849086414
175.5,-0.001065453248064632,0.0003020653503687839,-0.0003195273197695431
176.0,-0.0007749456518730771,0.0005925729465603389,-0.00012049677124246257
176.5,-0.0005587869845854052,0.0008087316138480108,-6.48209918078309e-06
177.0,-0.00036292657955899966,0.0010045920188744163,7.616153720047111e-05
177.5,-0.00019716483264463523,0.0011703537657887808,0.00011728841820773375
178.0,6.417473909694609e-05,0.001431693337530362,0.00024231823905669354
178.5,-0.00017743381523470156,0.0011900847831987143,-0.00014741749666307368
179.0,0.0004051633018445344,0.0017726819002779504,0.0002752303539214783
179.5,0.000152042872052997,0.0015195614704864129,-0.00014950667755241737
180.0,0.0003277472616802203,0.0016952658601136362,-0.0001567530016442001
180.5,0.0006123303764340966,0.0019798489748675124,-6.592684914453247e-05
181.0,0.0005859962000905829,0.0019535147985239986,-0.00029608900447682064
181.5,0.000906952226713812,0.002274470825147228,-0.00018808064962776106
182.0,0.0011174192792926887,0.002484937877726105,-0.00019850937222206473
182.5,0.0012519694186454498,0.0026194880170788658,-0.00029141212143973154
183.0,0.0013883749344745784,0.0027558935329079944,-0.0003874125125051431
183.5,0.0014873983697156709,0.002854916968149087,-0.0005239427946618861
184.0,0.001937286441532852,0.003304805039966268,-0.00031076773214513964
184.5,0.0024174426864092763,0.0037849612848426923,-6.633550956859028e-05
185.0,0.002420782557618134,0.00378830115605155,-0.0002954516842669499
185.5,0.002837602656651739,0.004205121255085155,-0.00010544406037757241
186.0,0.003287094442033181,0.004654613040466597,0.00012531249504298993
186.5,0.003193560085486248,0.004561078683919664,-0.00017643021764647115
187.0,0.003465173590173095,0.004832692188606511,-0.00010007735739532564
187.5,0.003914785593959934,0.005282304192393349,0.00016956751470351052
188.0,0.004019088928928646,0.005386607527362062,0.00011142146756193926
188.5,0.004388667276418349,0.005756185874851764,0.0003381253279832923
189.0,0.004663961247433862,0.006031479845867278,0.0004919665325162957
189.5,0.0047578383379651,0.006125356936398516,0.0004874094209895829
190.0,0.004578963245928881,0.005946481844362297,0.00023443064885819796
190.5,0.004688136748633821,0.006055655347067236,0.00029482898420370596
191.0,0.004750811566635212,0.006118330165068627,0.0003347188169329548
191.5,0.0046402338666721365,0.006007752465105553,0.00022765673344639272
192.0,0.004580118859580378,0.005947637458013794,0.00019731008400163987
192.5,0.0046345684774498986,0.006002087075883315,0.00030737575005216743
193.0,0.0049389612020831275,0.006306479800516544,0.0006924791492495539
193.5,0.004663739231935754,0.006031257830369169,0.0005219783749543291
194.0,0.004568897572174872,0.005936416170608288,0.0005544775203923675
194.5,0.004240614986865092,0.005608133585298507,0.00037448836942934917
195.0,0.0035160490157458623,0.004883567614179279,-0.00018273829278443992
195.5,0.003106565234456284,0.0044740838328897,-0.00040794267419893854
196.0,0.002788194088965592,0.004155712687399008,-0.0005273551597530174
196.5,0.002699218692212487,0.004066737290645903,-0.0004050625770119585
197.0,0.0025512246765136857,0.003918743274947102,-0.0003319117475677662
197.5,0.0022695645195712735,0.0036370831180046895,-0.0003849991745162283
198.0,0.00197601183335586,0.003343530431789276,-0.0004449725716610389
198.5,0.0017136071375178767,0.0030811257359512926,-0.00047114379550868305
199.0,0.0013128256895398303,0.0026803442879732462,-0.0006352835456478246
199.5,0.001143814097812898,0.002511332696246314,-0.0005693518749565968
200.0,0.0008035275929456878,0.002171046191379104,-0.0006783332146476119
200.5,0.000556151790667549,0.001923670389100965,-0.0006997924650889076
201.0,0.0002031638779057042,0.0015706824763391202,-0.0008337974086766282
201.5,0.00022208390397151457,0.0015896025024049304,-0.0006041567615537899
202.0,0.00019923088993148343,0.0015667494883648994,-0.0004256589749063507
202.5,6.847889468003252e-05,0.0014359974931134486,-0.000365316316156264
203.0,1.1528987441975877e-06,0.0013686714971776137,-0.0002524739072708453
203.5,-0.0002743973714179206,0.0010931212270154952,-0.00035924503247802635
204.0,9.702656893410659e-05,0.0014645451673675224,0.00016930017136825796
204.5,-5.3061785409961934e-05,0.001314456813023454,0.0001645853774598085
205.0,-1.5055810076965652e-05,0.0013524627883564502,0.000336288414523793
205.5,2.899926668048749e-05,0.0013965178651139034,0.0005025770183227197
206.0,0.0002551751613697617,0.0016226937598031775,0.0008398575317164406
206.5,0.0004404475913048056,0.0018079661897382215,0.0011255416430245736
207.0,0.0004093365871750769,0.001776855185608493,0.0011846667057377608
207.5,-3.2641429149510444e-05,0.0013348771692839054,0.0008233286173158323
208.0,0.00026327749156084814,0.001630796089994264,0.001190914936604593
208.5,-2.792805315508648e-05,0.0013395905452783295,0.0009630554675213298
209.0,0.0002231537349965916,0.0015906723334300076,0.0012698259729069065
209.5,0.00018037775272067787,0.0015478963511540939,0.0012757450694436626
210.0,-2.6696270842881383e-05,0.0013408223275905345,0.0011110248585636203
210.5,0.00013379797736776352,0.0015013165758011795,0.001308163473189965
211.0,-8.395627364580973e-05,0.0012835623247876063,0.0011219480467436274
211.5,0.00019698935035057216,0.0015645079487839881,0.0014298973194102778
212.0,3.3122004623829686e-05,0.0014006406030572457,0.0012890312544308513
212.5,7.867956980619706e-05,0.001446198168239613,0.0013540804053096863
213.0,1.654476537915952e-05,0.0013840633638125754,0.0013083787181274583
213.5,-0.00017086058669601577,0.0011966580117374003,0.0011347575666112474
214.0,-2.9421762853458484e-05,0.0013380968355799574,0.0012877002222886843
214.5,-0.00022183828355395863,0.0011456803148794574,0.0011048361027527322
215.0,0.00014380077919758094,0.001511319377630997,0.001478367415172548
215.5,9.692017912751949e-05,0.0014644387775609355,0.0014379748904257965
216.0,0.00011326731811914172,0.0014807859165525577,0.0014596292336161083
216.5,-0.00026315858359652965,0.0011043600148368863,0.0010875230769449402
217.0,0.0001719413456575611,0.001539459944090977,0.0015261216517263045
217.5,-5.881637376945613e-05,0.0013087022246639599,0.0012981836003097041
218.0,0.0001279090127138596,0.0014954276111472755,0.0014871702886030055
218.5,9.808338952856183e-05,0.0014656019879619778,0.0014591492928832863
219.0,0.00033418718334182247,0.0017017057817752385,0.0016966862335929414
219.5,0.0004162113039660913,0.0017837299023995073,0.0017798429457053775
220.0,0.00036609856851187167,0.0017336171669452877,0.001730620928535205
