wavelength,absorbance,absorbance_bk,residual_3gauss
117.0,0.16746902479594905,0.16351646155813626,-0.0011580209962159804
117.5,0.1678496338547354,0.1638970706169226,5.9366024292573094e-05
118.0,0.1667125966026184,0.1627600333648056,-9.014943812279963e-06
118.5,0.16359034118367885,0.15963777794586606,-0.0018362229994260681
119.0,0.16417383103788943,0.16022126780007664,0.00026201342603662803
119.5,0.16256173715937983,0.15860917392156704,0.0003764514193627111
120.0,0.16087903702985407,0.15692647379204128,0.0006229103815986181
120.5,0.15874202297603934,0.15478945973822655,0.0006072519213773109
121.0,0.1576754867303114,0.1537229234924986,0.0018425281742126542
121.5,0.15442904100646107,0.15047647776864828,0.0010652581869223243
122.0,0.15128665700584343,0.14733409376803064,0.0005449105421587164
122.5,0.14844819894941852,0.14449563571160573,0.00046537318709552467
123.0,0.14579137702211264,0.14183881378429986,0.0006868325228467365
123.5,0.14267438326645612,0.13872182002864333,0.000548327965063905
124.0,0.139276801416312,0.1353242381784992,0.00020857584324190936
124.5,0.13563074269178488,0.1316781794539721,-0.00032298107622077965
125.0,0.13206612727923328,0.1281135640414205,-0.0007409729171095059
125.5,0.1290910711170361,0.12513850787922332,-0.0005637838114821436
126.0,0.12559702822458313,0.12164446498677034,-0.0009284554729638572
126.5,0.12215362820279566,0.11820106496498287,-0.0012958629122016146
127.0,0.11907258840399916,0.11512002516618637,-0.001386770717170152
127.5,0.11663195219374256,0.11267938895592977,-0.0009575053297215114
128.0,0.1136041261884766,0.1096515629506638,-0.0012717566996638674
128.5,0.1113752791554256,0.10742271591761281,-0.000980932938924664
129.0,0.10981383736955602,0.10586127413174323,-0.00025532031578397174
129.5,0.10814769844796852,0.10419513521015573,9.358455523485187e-05
130.0,0.10655672409541382,0.10260416085760103,0.00020613912765506115
130.5,0.10526003479313184,0.10130747155531905,0.0002625435082531241
131.0,0.10484446292405868,0.10089189968624589,0.000812109337849018
131.5,0.10426884624533898,0.1003162830075262,0.0007784846095181958
132.0,0.10462628073139116,0.10067371749357837,0.0012229404333971017
132.5,0.10514943819547816,0.10119687495766537,0.0013508047905273352
133.0,0.10535911691281644,0.10140655367500365,0.0006611834956418011
133.5,0.10685778362652916,0.10290522038871637,0.0007416912172787116
134.0,0.10865032378429644,0.10469776054648365,0.0005903668998240019
134.5,0.11021500543533988,0.10626244219752709,-0.0003122694111585417
135.0,0.11349032012861476,0.10953775689080197,-1.540781701088456e-05
135.5,0.11660993189544044,0.11265736865762765,-0.00036221201452561747
136.0,0.12046462010781156,0.11651205686999877,-0.0004273243646729791
136.5,0.12501486609149284,0.12106230285368005,-0.00020401522645688286
137.0,0.1299144599609483,0.1259618967231355,1.9352928324251062e-05
137.5,0.13566791852284907,0.13171535528503628,0.0008162988966808338
138.0,0.1409875946644817,0.13703503142666892,0.000978486615973162
138.2,0.14161154094921283,0.13765897771140004,-0.0004973113823040776
138.4,0.14406843543405845,0.14011587219624566,-0.0001522515516982903
138.6,0.1462823523576542,0.1423297891198414,-5.607809830443511e-05
138.8,0.14827991504498955,0.14432735180717676,-0.00017583758475622768
139.0,0.15011544973510135,0.14616288649728856,-0.00045074824416213577
139.2,0.1522726595901303,0.14832009635231752,-0.0003905505520660768
139.4,0.1549486563794676,0.1509960931416548,0.00020849852516102718
139.6,0.15688830439748608,0.1529357411596733,9.794226399426065e-05
139.8,0.15877900378714468,0.1548264405493319,-2.8120816178534014e-05
140.0,0.16071119252459878,0.156758629286786,-7.256430753124765e-05
140.2,0.16255911414825897,0.15860655091044618,-0.00015449640379167073
140.4,0.16478033594266156,0.16082777270484877,0.00019022733160259375
140.6,0.1661289210479402,0.1621763578101274,-0.0002778554519778098
140.8,0.16758804379864006,0.16363548056082727,-0.0005692304866916353
141.0,0.16912131476895104,0.16516875153113825,-0.0007141140013667557
141.2,0.1705021366256007,0.16654957338778792,-0.0009331290675070048
141.4,0.17212901962603225,0.16817645638821946,-0.0008220221406796957
141.6,0.1738571880427881,0.1699046248049753,-0.0005200883100058284
141.8,0.17513760014889176,0.17118503691107897,-0.0005711824068363458
142.0,0.17584239939520993,0.17188983615739714,-0.0010982981205626963
142.2,0.17782066886505382,0.17386810562724103,-0.00024784280924475266
142.4,0.17829239272969188,0.1743398294918791,-0.0007957040493675183
142.6,0.18000934390681153,0.17605678066899874,1.3611513077049775e-05
142.8,0.18064854093540977,0.17669597769759698,-0.00013958973814812148
143.0,0.18102498172974196,0.17707241849192917,-0.0004374774381715185
143.2,0.18223399975975407,0.17828143652194128,0.000217638348220639
143.4,0.1827425642370079,0.17879000099919512,0.0002945891684696389
143.6,0.1826115937763268,0.178659030538514,-0.00014435362190090562
143.8,0.18348253466102837,0.17952997142321558,0.000543086842567625
144.0,0.18315246778969133,0.17919990455187854,0.000154290437831911
144.2,0.1838968321534371,0.17994426891562432,0.0009644574012888651
144.4,0.1831751502134192,0.17922258697560642,0.0004323310905347544
144.6,0.1827323562689856,0.1787797930311728,0.0003015274101542398
144.8,0.18293636848484807,0.17898380524703528,0.0009381117234136538
145.0,0.18197819469572543,0.17802563145791264,0.0005307134913235256
145.2,0.18177240353039528,0.1778198402925825,0.0009910102770394336
145.4,0.18122539022568024,0.17727282698786745,0.0012220105507406986
145.6,0.1809858128709456,0.1770332496331328,0.0018685110653224313
145.8,0.17888983468139627,0.17493727144358348,0.000762364392755982
146.0,0.17831159399900287,0.17435903076119008,0.0012729782701387526
146.2,0.17698411746927456,0.17303155423146177,0.0011282621095625167
146.4,0.1753330434872965,0.1713804802494837,0.0007483876242507792
146.6,0.17345005708623593,0.16949749384842314,0.00021926455419704616
146.8,0.17194738737892942,0.16799482414111663,0.00014708236132324193
147.0,0.17102944639264492,0.16707688315483213,0.0007299964420502958
147.2,0.16837261659943428,0.1644200533616215,-0.0003620341843535435
147.4,0.16706704963488567,0.16311448639707288,-4.539561420541238e-05
147.6,0.16563730901291987,0.16168474577510708,0.00019787813779678642
147.8,0.16277590845909914,0.15882334522128636,-0.000946300598807237
148.0,0.16150972488549503,0.15755716164768224,-0.0004576033359264542
148.2,0.15924337188483328,0.1552908086470205,-0.0009378547595595699
148.4,0.15740761370540232,0.15345505046758953,-0.0009625618584129247
148.6,0.15544345227578635,0.15149088903797356,-0.001096770917522305
148.8,0.15335506504667856,0.14940250180886577,-0.0013420752677706926
149.0,0.15175338804296945,0.14780082480515666,-0.0010929800678519674
149.2,0.14959000161082983,0.14563743837301704,-0.0014029673059741399
149.4,0.14820418340857447,0.14425162017076168,-0.00093739713680005
149.6,0.14644542897499835,0.14249286573718556,-0.000850945865871422
149.8,0.14483034512203083,0.14087778188421804,-0.0006306759512845761
150.0,0.14246647821205735,0.13851391497424456,-0.0011721765383885252
150.5,0.13979296613880893,0.13584040290099614,0.000637924008563856
151.0,0.1351439698406784,0.1311914066028656,0.00035258540821250794
151.5,0.13090231849149808,0.1269497552536853,0.00035335262826796665
152.0,0.12683759371662842,0.12288503047881563,0.00043036084484368575
152.5,0.12271651892615491,0.11876395568834212,0.0003898294644273659
153.0,0.11904160944786218,0.1150890462100494,0.0007882354187170593
153.5,0.1149372687726395,0.11098470553482671,0.0008126873422127506
154.0,0.1104395442027578,0.10648698096494501,0.0005641853097358429
154.5,0.10611360685038428,0.10216104361257149,0.0006683950293421698
155.0,0.10191580559859093,0.09796324236077814,0.0011313861853704116
155.5,0.09656019233075584,0.09260762909294305,0.000700804772888669
156.0,0.09080634771426288,0.08685378447645009,0.00014979091673661404
156.5,0.08539950949044339,0.0814469462526306,0.00021498256082301548
157.0,0.07882386588882598,0.07487130265101319,-0.0006503744383741517
157.5,0.07356350210328384,0.06961093886547105,-1.375944233635018e-05
158.0,0.06735007216777228,0.06339750892995949,-0.00021230533857109768
158.5,0.06085339264737729,0.05690082940956451,-0.0006575056713241309
159.0,0.05465360055811853,0.050701037320305745,-0.0008575455644143151
159.5,0.04922988675006471,0.04527732351225193,-0.00042278104810450357
160.0,0.04235310574735938,0.038400542509546595,-0.001667589096938149
160.5,0.03743221874455801,0.033479655506745226,-0.0012590873689309959
161.0,0.03278024382143115,0.02882768058361837,-0.0009473952308523131
161.5,0.028556824316393253,0.02460426107858047,-0.0006205352887350413
162.0,0.024595306502330216,0.020642743264517434,-0.0004761520511372998
162.5,0.02174743390132075,0.017794870663507968,0.00032312378640230593
163.0,0.018659673989918128,0.014707110752105344,0.00042485299912787405
163.5,0.016182718923449326,0.012230155685636542,0.0006942952770934204
164.0,0.014276367184160319,0.010323803946347535,0.0011167373023509251
164.5,0.012723055372189703,0.008770492134376919,0.0015081973447226924
165.0,0.011336198902308452,0.007383635664495668,0.0017209252631474915
165.5,0.010835368220854546,0.006882804983041762,0.002515937158739108
166.0,0.009312528567141837,0.005359965329329053,0.002026966200118811
166.5,0.008897631143819463,0.004945067906006679,0.0024242090666640875
167.0,0.008959881475415533,0.005007318237602748,0.003114228012563193
167.5,0.007847194458195966,0.0038946312203831813,0.002478504653854157
168.0,0.00683831554006783,0.0028857523022550458,0.0018250764502312465
168.5,0.00676631752198778,0.002813754284174996,0.002011895062904702
169.0,0.006486195643408501,0.002533632405595717,0.0019145492692248084
169.5,0.007004488372503223,0.003051925134690439,0.0025562001797289893
170.0,0.007149447964480806,0.0031968847266680214,0.0027781806775161984
170.5,0.007224210346225978,0.0032716471084131933,0.002893648438831225
171.0,0.0064618334035084,0.0025092701656956153,0.002143115265125939
171.5,0.006125899106751255,0.002173335868938471,0.0017955156053633325
172.0,0.005950395259459786,0.0019978320216470016,0.0015885098572965654
172.5,0.006120666568536548,0.0021681033307237637,0.0017098021111761328
173.0,0.006282599096413864,0.0023300358586010794,0.0018066340340844253
173.5,0.006001466351899742,0.002048903114086958,0.001444886058675075
174.0,0.005799631609260862,0.0018470683714480775,0.0011469865464919116
174.5,0.005850891899501129,0.001898328661688345,0.0010864219535006358
175.0,0.006700928044157177,0.002748364806344393,0.0018083202315842014
175.5,0.006006081127475456,0.002053517889662672,0.0009683351923188226
176.0,0.005778130061175007,0.0018255668233622228,0.0005775128124710551
176.5,0.005618647744738112,0.001666084506925328,0.00023672209084686494
177.0,0.0058597077118052185,0.0019071444739924342,0.00027742620249413376
177.5,0.005858943900880828,0.001906380663068044,5.679927407420751e-05
178.0,0.006168927989044246,0.0022163647512314618,0.0001271548793655734
178.5,0.00627557047556478,0.0023230072377519954,-2.5606751637205234e-05
179.0,0.0068312186030344176,0.0028786553652216332,0.00025114040649012147
179.5,0.006659927269859712,0.002707364032046928,-0.0002179449831736552
180.0,0.006425009136591737,0.0024724458987789525,-0.0007685916091179279
180.5,0.007092667342009655,0.003140104104196871,-0.00043325987065742427
181.0,0.007798880024334456,0.0038463167865216714,-7.424246030237388e-05
181.5,0.0076408848882365855,0.0036883216504238012,-0.0005921739609424494
182.0,0.007747113716779197,0.0037945504789664124,-0.000856100477509448
182.5,0.008381908352905304,0.00442934511509252,-0.000598778498558267
183.0,0.008633151827107475,0.004680588589294691,-0.000729069759948504
183.5,0.00873561327614384,0.004783050038331056,-0.0010086335847420136
184.0,0.008756821684134794,0.004804258446322009,-0.0013661014138855515
184.5,0.009676549563452258,0.005723986325639474,-0.0008176517568729402
185.0,0.01037268690926534,0.0064201236714525566,-0.00048120416805156035
185.5,0.010973837403690907,0.007021274165878123,-0.0002238988166814856
186.0,0.011383270522936405,0.007430707285123621,-0.0001382261771727053
186.5,0.01095687297150698,0.007004309733694196,-0.0008641612812098111
187.0,0.011495085215341008,0.007542521977528223,-0.0005973143792531704
187.5,0.011577048000893314,0.00762448476308053,-0.0007548705797547732
188.0,0.012748430485798136,0.008795867247985352,0.00021215577437539226
188.5,0.013035492187471595,0.00908292894965881,0.0003329067824632149
189.0,0.013405318960867343,0.009452755723054559,0.0005768493770299428
189.5,0.012966068075187576,0.009013504837374791,5.396371381739644e-05
190.0,0.013711619070137172,0.009759055832324387,0.0007593501285407915
190.5,0.01397011108004126,0.010017547842228476,0.001021736827289399
191.0,0.013294404828579805,0.00934184159076702,0.00039392751958448186
191.5,0.013180965424880228,0.009228402187067443,0.0003716856149293176
192.0,0.013418702026140405,0.009466138788327621,0.0007425910005209851
192.5,0.014047481651228403,0.010094918413415619,0.0015445861015662057
193.0,0.013637379947716974,0.00968481670990419,0.0013452729336677297
193.5,0.013719414340299243,0.009766851102486459,0.0016727050198198212
194.0,0.012415935524382093,0.008463372286569308,0.0006458481850885895
194.5,0.012361639225417912,0.008409075987605128,0.0008956698866076007
195.0,0.01134854547634739,0.007395982238534606,0.00021020185090768907
195.5,0.01010755584597176,0.006154992608158976,-0.0006838161447499701
196.0,0.010312181101769045,0.00635961786395626,-0.00011712147206881761
196.5,0.009226128377032272,0.0052735651392194875,-0.000830256283337067
197.0,0.0091398323180744,0.005187269080261616,-0.000536955439949474
197.5,0.00832447349702887,0.004371910259216086,-0.0009700535326176108
198.0,0.007991289530633529,0.0040387262928207445,-0.0009221073076111121
198.5,0.007679999972616677,0.003727436734803893,-0.0008569138128332963
199.0,0.007354059442694519,0.0034014962048817344,-0.0008142107798230483
199.5,0.006657594726845464,0.00270503148903268,-0.0011527040737034362
200.0,0.007330589149867398,0.003378025912054614,-0.00013485907238107485
200.5,0.006055250597430201,0.0021026873596174164,-0.0010805193802264292
201.0,0.005948291084767454,0.0019957278469546697,-0.0008746244202511655
201.5,0.005938838491240586,0.0019862752534278013,-0.0005893044351610328
202.0,0.005516809327896,0.001564246090083216,-0.0007355229458520197
202.5,0.005116423089999458,0.0011638598521866734,-0.0008795848592672174
203.0,0.005468894703022486,0.0015163314652097016,-0.0002904723526029015
203.5,0.005904132511834004,0.00195156927402122,0.0003618203273512324
204.0,0.004974547685702238,0.001021984447889454,-0.00036993957629989963
204.5,0.005380999834292326,0.001428436596479542,0.00021568472379642498
205.0,0.0056265205798175545,0.0016739573420047702,0.0006224850917665697
205.5,0.005249896672190754,0.0012973334343779697,0.0003901541684972862
206.0,0.005057829121685584,0.0011052658838727998,0.0003264086569189341
206.5,0.005470112739954664,0.0015175495021418793,0.0008521353537083448
207.0,0.004995142366526538,0.0010425791287137533,0.0004768667967189887
207.5,0.005377030185526774,0.0014244669477139899,0.0009458713498811188
208.0,0.005271062001403,0.0013184987635902158,0.0009155858457890649
208.5,0.005413112420035984,0.0014605491822231994,0.0011230108332071199
209.0,0.00514662728832319,0.0011940640505104056,0.0009126767517080172
209.5,0.005198177851654108,0.001245614613841324,0.0010121853516010864
210.0,0.005086401931179157,0.0011338386933663729,0.0009411414318634197
210.5,0.00543966404219432,0.001487100804381536,0.0013288065226943206
211.0,0.005095935420120729,0.001143372182307945,0.0010139751403276955
211.5,0.004644702901251829,0.0006921396634390446,0.0005868821978385942
212.0,0.004806258153388649,0.0008536949155758646,0.0007684926962081037
212.5,0.0040666840548281135,0.0001141208170153292,4.549013028189774e-05
213.0,0.004476249869758296,0.0005236866319455113,0.0004686749124410633
213.5,0.004426430366043518,0.00047386712823073354,0.00042998764202985224
214.0,0.004304966025396316,0.0003524027875835313,0.00031757408588371696
214.5,0.004469086884005627,0.0005165236461928428,0.0004890141601831982
215.0,0.003952563237812784,0.0,-2.16220618228159e-05
215.5,0.004578935837988843,0.0006263726001760591,0.0006094611374857205
216.0,0.004375890851447431,0.0004233276136346468,0.00041016522598524835
216.5,0.004721464064633691,0.0007689008268209063,0.0007587065218693058
217.0,0.004622128126268593,0.000669564888455809,0.0006617080105756625
217.5,0.004657487245017653,0.0007049240072048686,0.0006988982473000427
218.0,0.0046152801914924775,0.0006627169536796932,0.0006581181689352105
218.5,0.004992689747784366,0.001040126509971582,0.0010366339507493667
219.0,0.0045776799002772255,0.0006251166624644412,0.0006224772095777278
219.5,0.004541575875807181,0.0005890126379943968,0.0005870276700936794
220.0,0.004203436706957327,0.0002508734691445431,0.0002493880038826883
