wavelength,absorbance,absorbance_bk,residual_3gauss
117.0,0.16947472482631334,0.16875691810390134,-0.0005512955061975355
117.5,0.1689773803714191,0.1682595736490071,-0.00019131811077374716
118.0,0.16784978023032118,0.16713197350790918,-0.00018884645663413968
118.5,0.16623352691421772,0.16551572019180572,-0.0004091806814678911
119.0,0.16515311410571623,0.16443530738330422,0.00016361655157340338
119.5,0.16198742727099769,0.16126962054858568,-0.0011018027115844709
120.0,0.16055723022111956,0.15983942349870756,-0.0003966131758779967
120.5,0.15995744084394564,0.15923963412153364,0.0013604248301500865
121.0,0.15764580208290663,0.15692799536049462,0.0016115934719688751
121.5,0.15441490283333215,0.15369709611092014,0.0011321859668383671
122.0,0.1512696160485305,0.1505518093261185,0.0009078823172415651
122.5,0.14843122962400263,0.14771342290159062,0.0011388081296280772
123.0,0.1446259169699068,0.14390811024749478,0.0005279249143974318
123.5,0.14168933113258766,0.14097152441017566,0.0008855386054629211
124.0,0.13648457818368093,0.13576677146126892,-0.0009528134813383549
124.5,0.13318090908075086,0.13246310235833886,-0.0008477517271885393
125.0,0.12983831833378742,0.12912051161137542,-0.000771522716494305
125.5,0.1260674429484691,0.1253496362260571,-0.0011481434157264714
126.0,0.12228992983059377,0.12157212310818177,-0.0015930406084238152
126.5,0.11939101562893854,0.11867320890652655,-0.0012604276259398361
127.0,0.1169119301779027,0.11619412345549071,-0.0006507918360736109
127.5,0.11337069949582504,0.11265289277341305,-0.0012899006990670092
128.0,0.1117206798571784,0.11100287313476641,-0.0002699785009473432
128.5,0.10929367180485212,0.10857586508244013,-0.0003061892922334303
129.0,0.1074433212583577,0.10672551453594571,-9.270510436498736e-05
129.5,0.10588074058651718,0.10516293386410519,3.3584163744437845e-05
130.0,0.10549799851208191,0.10478019178966992,0.0009173744841260711
130.5,0.10472332289659685,0.10400551617418485,0.0009411099372768489
131.0,0.10440191541130812,0.10368410868889613,0.00090689645959037
131.5,0.1052310665950496,0.10451325987263761,0.0014728417333650379
132.0,0.10603055620024444,0.10531274947783245,0.001424783594614884
132.5,0.1067549427493119,0.1060371360268999,0.0006899792824869577
133.0,0.1092290918388316,0.10851128511641961,0.0010740644439324182
133.5,0.11167507599037747,0.11095726926796548,0.0007893656286293571
134.0,0.11415533694961988,0.11343753022720789,-0.00010059915701386701
134.5,0.11777514575139128,0.11705733902897929,-0.0004774583495438939
135.0,0.12247713592282984,0.12175932920041785,-0.0003724527955754897
135.5,0.12675574515982335,0.12603793843741135,-0.0012512597540172699
136.0,0.13239462798668955,0.13167682126427754,-0.001276174831389587
136.5,0.1385346723657148,0.13781686564330278,-0.0012380749766276455
137.0,0.14517374542155403,0.14445593869914203,-0.0010570837214205764
137.5,0.1524231618332434,0.15170535511083139,-0.0005269785098387381
138.0,0.16002464067886116,0.15930683395644915,0.0002004080002619979
138.2,0.16204552072946857,0.16132771400705656,-0.0005459463789264374
138.4,0.16498272798106592,0.1642649212586539,-0.0003744386937248323
138.6,0.16794190510433218,0.16722409838192018,-0.00017146257927619368
138.8,0.17073993157153824,0.17002212484912624,-0.00011203918911431576
139.0,0.17434648276573436,0.17362867604332236,0.0007817119099659542
139.2,0.17682515005660987,0.17610734333419786,0.0005816613538668081
139.4,0.1797074220688616,0.17898961534644958,0.0008276184566183009
139.6,0.18245991840168205,0.18174211167927004,0.0009945309378766587
139.8,0.18483018155729464,0.18411237483488263,0.0008382418050478513
140.0,0.18721595019191,0.186498143469498,0.0007647266581354839
140.2,0.18936065438815997,0.18864284766574796,0.0005255522805482915
140.4,0.19189804366408936,0.19118023694167735,0.0007624674040168644
140.6,0.19377261975151008,0.19305481302909808,0.00042779786173494094
140.8,0.1957402893681544,0.1950224826457424,0.0002850615431348458
141.0,0.19756315576979472,0.1968453490473827,0.00010372213252191065
141.2,0.19933247301346263,0.19861466629105062,-1.7894234726339997e-05
141.4,0.20094983580319456,0.20023202908078255,-0.0001714463183721815
141.6,0.20213348519678384,0.20141567847437183,-0.0006323086293479607
141.8,0.2034794120978932,0.20276160537548119,-0.0007985036520649358
142.0,0.20510025872309992,0.20438245200068791,-0.0005518350195863608
142.2,0.20586107284646235,0.20514326612405034,-0.0010221666110218353
142.4,0.207114001272868,0.206396194550456,-0.0008527608880031234
142.6,0.20789747794500252,0.2071796712225905,-0.0010011208301681784
142.8,0.20855785025633825,0.20784004353392624,-0.001117391659154393
143.0,0.20941238615045188,0.20869457942803987,-0.0008813795304052074
143.2,0.21049223550844645,0.20977442878603444,-0.0002596134490591706
143.4,0.21035720796422627,0.20963940124181427,-0.0006905880274971632
143.6,0.2109575135456833,0.21023970682327128,-0.00022304044417412183
143.8,0.2111676106150148,0.2104498038926028,1.788311013650734e-05
144.0,0.21106647494248673,0.21034866822007472,0.00011088557038813063
144.2,0.2108585830238383,0.2101407763014263,0.00025949506198705286
144.4,0.2109425942930669,0.21022478757065488,0.000860743768655442
144.6,0.20977307505362788,0.20905526833121588,0.00036689264102224284
144.8,0.20910575885576893,0.20838795213335692,0.0005306968749693441
145.0,0.2084817677304854,0.2077639610080734,0.0008896367547585049
145.2,0.2071530034158116,0.2064351966933996,0.0006913231605078229
145.4,0.20623696444534317,0.20551915772293117,0.0010483337487503797
145.6,0.2047198798757577,0.2040020731533457,0.0009413706919907672
145.8,0.2030975380691114,0.2023797313466994,0.0008601184675264828
146.0,0.2016002933047228,0.20088248658231078,0.0010282845049646716
146.2,0.19963924547127107,0.19892143874885906,0.0008498179325191479
146.4,0.19740729456388603,0.19668948784147403,0.0005100080858163047
146.6,0.19535982671128588,0.19464201998887387,0.0004562193875533027
146.8,0.1929900321031184,0.1922722253807064,0.0001732627908942186
147.0,0.19057117223660097,0.18985336551418897,-7.427903655893298e-05
147.2,0.1882140663189778,0.1874962595965658,-0.00018450326268795725
147.4,0.18612696025107567,0.18540915352866366,4.174786792759955e-05
147.6,0.18360992879806537,0.18289212207565336,-0.00010464174862562237
147.8,0.1805771898565382,0.1798593831341262,-0.0007186760210287357
148.0,0.17805533998871845,0.17733753326630644,-0.0007829372041594784
148.2,0.17552086745689516,0.17480306073448315,-0.0008299974786743491
148.4,0.17271028353499623,0.17199247681258423,-0.0011322115343524453
148.6,0.17025345783404247,0.16953565111163046,-0.0010683052244869484
148.8,0.1678603081409054,0.1671425014184934,-0.0009366106498063242
149.0,0.16559145579281315,0.16487364907040114,-0.0006843375517870121
149.2,0.16331208621929255,0.16259427949688054,-0.00045364231900482666
149.4,0.16125493336383356,0.16053712664142156,-1.8576849555557162e-05
149.6,0.15902888268383383,0.15831107596142183,0.00022357646844481383
149.8,0.15637237268817047,0.15565456596575847,5.7626678918731855e-06
150.0,0.15381076273503166,0.15309295601261966,-0.00015142819378999306
150.5,0.14856955536504007,0.14785174864262807,0.00044415842030332
151.0,0.142679041919895,0.141961235197483,0.00011317566874952112
151.5,0.13752853004805507,0.13681072332564306,0.00023739715022536023
152.0,0.1324286458518362,0.1317108391294242,0.00015180611429133073
152.5,0.12762512620546615,0.12690731948305414,0.00015503380372527964
153.0,0.12323365901718183,0.12251585229476984,0.0004384152599776897
153.5,0.1185446581398386,0.1178268514174266,0.00038295784966613233
154.0,0.11395497208549728,0.11323716536308528,0.00048186855985996035
154.5,0.10917997795437764,0.10846217123196565,0.0005429190304347409
155.0,0.10365931881430691,0.10294151209189492,8.482768718691414e-05
155.5,0.09805812728331774,0.09734032056090575,-0.00016958937080753522
156.0,0.09242225429179443,0.09170444756938244,-0.00014419284525866993
156.5,0.08619997631239376,0.08548216958998177,-0.0003911792747549464
157.0,0.0801364143311832,0.0794186076087712,-0.00019711323789424473
157.5,0.07362103312828251,0.07290322640587052,-0.00023300701560904913
158.0,0.06733334480575896,0.06661553808334697,9.632404544644702e-05
158.5,0.06061412753668122,0.059896320814269224,3.033265939982044e-05
159.0,0.05408595908286418,0.053368152360452184,8.12563245208564e-05
159.5,0.047357642756431555,0.04663983603401956,-0.00025319135125867476
160.0,0.041270246773252126,0.04055244005084013,-0.0002360448492204209
160.5,0.035542933886628186,0.034825127164216194,-0.00023873034363135204
161.0,0.03017403966007144,0.029456232937659445,-0.000335153510921761
161.5,0.025400633639023854,0.024682826916611857,-0.00033924815888418045
162.0,0.0211468144394682,0.020429007717056205,-0.00035575259294918365
162.5,0.017377700695309042,0.016659893972897046,-0.00042706608843967944
163.0,0.014586717928788143,0.013868911206376148,-4.8247216746427624e-05
163.5,0.012353143936742679,0.011635337214330684,0.0003872366758304203
164.0,0.010344680871118547,0.009626874148706553,0.0005862315311848543
164.5,0.00853592003843435,0.007818113316022356,0.0005703816036297495
165.0,0.0075211522242228995,0.006803345501810905,0.000985185112088555
165.5,0.006731614514414884,0.00601380779200289,0.0013139713890848517
166.0,0.005870387123768049,0.005152580401356055,0.0013101702927109122
166.5,0.005231842701054985,0.004514035978642991,0.001314837401066134
167.0,0.0048784915370160414,0.004160684814604047,0.001432259697996922
167.5,0.004686821829747249,0.003969015107335255,0.0015751642805651722
168.0,0.004098790772437209,0.003380984050025215,0.0012160743744804659
168.5,0.003771894898897139,0.003054088176485144,0.0010376157014683716
169.0,0.0035089833144830843,0.0027911765920710895,0.000862814238768656
169.5,0.0034881718564994824,0.002770365134087488,0.0008856351961052267
170.0,0.003514853883721578,0.0027970471613095833,0.0009236715325230799
170.5,0.0034655880742723807,0.002747781351860386,0.0008626979839394524
171.0,0.003193718946021877,0.0024759122236098826,0.000562903767410441
171.5,0.003066069139600005,0.00234826241718801,0.00039611916210951625
172.0,0.003031143525161637,0.002313336802749642,0.00031446677269795966
172.5,0.002633548079966229,0.0019157413575542342,-0.0001348585078427267
173.0,0.0025095508749328256,0.0017917441525208309,-0.0003137459375434821
173.5,0.0025705012915383358,0.001852694569126341,-0.00030953470494843815
174.0,0.0024218601597126967,0.001704053437300702,-0.0005158243264430072
174.5,0.0024152702062012017,0.001697463483789207,-0.0005802886655500688
175.0,0.0021756499616832005,0.0014578432392712058,-0.0008775001164231793
175.5,0.002219439713724046,0.0015016329913120515,-0.0008906267380131762
176.0,0.002424076781908279,0.0017062700594962842,-0.000741918175473679
176.5,0.002499188952785412,0.0017813822303734174,-0.000721486242125512
177.0,0.0025272706401419653,0.0018094639177299707,-0.0007466116669956095
177.5,0.002452038977714156,0.0017342322553021612,-0.0008733769641910995
178.0,0.002436932476225857,0.0017191257538138624,-0.0009381607952946979
178.5,0.002546361873036983,0.0018285551506249883,-0.0008763828210360074
179.0,0.00277597078034396,0.002058164057931965,-0.0006922405063549864
179.5,0.0025307215771531583,0.0018129148547411636,-0.0009806218144237965
180.0,0.0025743527158599384,0.0018565459934479437,-0.0009776472112431173
180.5,0.002516740896096335,0.0017989341736843404,-0.0010733072619262634
181.0,0.002628451209841193,0.0019106444874291983,-0.000996912541294371
181.5,0.002591927058600508,0.0018741203361885134,-0.0010659039448320405
182.0,0.002748663630977567,0.002030856908565572,-0.0009386795373159014
182.5,0.002809546551771588,0.0020917398293595936,-0.0009042562784887598
183.0,0.002841686395707064,0.0021238796732950694,-0.0008954358991873444
183.5,0.002744049197744284,0.0020262424753322893,-0.0010131747728558131
184.0,0.0029871862169505463,0.002269379494538552,-0.0007868545091711593
184.5,0.0030948421385929435,0.0023770354161809486,-0.0006926740734093553
185.0,0.0030808541384356675,0.002363047416023673,-0.0007167509990255241
185.5,0.003485638878016215,0.00276783215560422,-0.00031863461839268335
186.0,0.0038002560123331034,0.003082449289921109,-7.242725666228248e-06
186.5,0.003642399362079976,0.002924592639667981,-0.00016487051634124505
187.0,0.0037659368744262208,0.0030481301520142263,-3.7650677256577825e-05
187.5,0.003836569513851949,0.003118762791439954,4.0105515823733034e-05
188.0,0.003982855918698875,0.0032650491962868807,0.0001969329293057152
188.5,0.0043348397223032485,0.003617032999891254,0.0005628400303089791
189.0,0.004393175788868378,0.0036753690664563833,0.0006384353220954203
189.5,0.004428022198294527,0.0037102154758825324,0.0006938195893028301
190.0,0.004377276754673508,0.0036594700322615135,0.0006668227258566505
190.5,0.004599206525830788,0.003881399803418794,0.0009156336506106022
191.0,0.004463071803728686,0.0037452650813166915,0.0008094246977365135
191.5,0.004400144532399698,0.0036823378099877036,0.0007793705253152376
192.0,0.004539618699925744,0.0038218119775137492,0.0009545590350418126
192.5,0.004642783854002052,0.003924977131590058,0.0010961654586355658
193.0,0.004894873292507792,0.004177066570095798,0.0013893011581257398
193.5,0.004720094512445557,0.004002287790033562,0.0012580447188632353
194.0,0.004718061144393043,0.004000254421981048,0.001301874557675344
194.5,0.004426648762611881,0.0037088420401998863,0.0010585254314131416
195.0,0.004133858896053117,0.0034160521736411225,0.0008158531661138003
195.5,0.0038155732949631768,0.003097766572551182,0.000549589656389592
196.0,0.003772013104481309,0.003054206382069314,0.0005598027813146665
196.5,0.004100909603214717,0.0033831028808027222,0.0009440678896943484
197.0,0.004097083847453259,0.0033792771250412646,0.000997048190340992
197.5,0.00409275347763586,0.0033749467552238654,0.001050802299037883
198.0,0.0038436967961380394,0.0031258900737260445,0.0008609490464787251
198.5,0.0036929834523211935,0.0029751767299091986,0.000770398878529368
199.0,0.0033733578634347916,0.0026555511410227967,0.0005117379730332169
199.5,0.0031569986813852146,0.0024391919589732197,0.00035698837906182916
200.0,0.0028229896543533967,0.0021051829319414022,8.507952376789543e-05
200.5,0.0026406874627003664,0.0019228807402883717,-3.4783337231757095e-05
201.0,0.002112635842036788,0.0013948291196247931,-0.0005002044162426892
201.5,0.002226797624233012,0.0015089909018210174,-0.00032336480869388077
202.0,0.0019547302498405025,0.0012369235274285078,-0.000532846476135351
202.5,0.0018790773374398528,0.0011612706150278581,-0.0005461402135913851
203.0,0.001668087862279252,0.0009502811398672574,-0.0006951260505948641
203.5,0.0016118925036045647,0.00089408578119257,-0.0006897965278038246
204.0,0.0016221012030575791,0.0009042944806455845,-0.0006186588077407454
204.5,0.0013573916177181927,0.000639584895306198,-0.0008231459366160477
205.0,0.0015056048782220869,0.0007877981558100922,-0.0006155208469708086
205.5,0.0015528791392825012,0.0008350724168705065,-0.0005097426136182967
206.0,0.001465597732271644,0.0007477910098596494,-0.0005395181526941279
206.5,0.0014073771805686584,0.0006895704581566637,-0.0005413141022488062
207.0,0.0014484527214722552,0.0007306459990602606,-0.0004449712394212525
207.5,0.001398491649264764,0.0006806849268527694,-0.00044089111816216593
208.0,0.0012488889716681588,0.0005310822492561641,-0.0005377404335657669
208.5,0.001025015786330898,0.0003072090639189033,-0.0007102027042397926
209.0,0.001184194769115154,0.0004663880467031592,-0.0005010028788096984
209.5,0.0012915431792886877,0.000573736456876693,-0.00034506445914310425
210.0,0.0010334064514728363,0.0003155997290608416,-0.0005560760679864747
210.5,0.0010279487347498915,0.0003101420123378968,-0.0005159010980358397
211.0,0.0009530083479751821,0.0002352016255631874,-0.0005467224707312226
211.5,0.001010713489331013,0.0002929067669190184,-0.0004464271640102111
212.0,0.0008834959041011079,0.0001656891816891132,-0.0005325928022791773
212.5,0.0010424659173673889,0.0003246591949553942,-0.00033411289912789965
213.0,0.000825668598623002,0.00010786187621100729,-0.0005129409830363479
213.5,0.0007913938284040048,7.358710599201016e-05,-0.0005107808332520551
214.0,0.0009714822992694237,0.000253675576857429,-0.0002957807908489374
214.5,0.0007703485998563836,5.254187744438887e-05,-0.00046351099366081453
215.0,0.0008951474354232498,0.00017734071301125508,-0.0003067974791938774
215.5,0.0010334260582365235,0.00031561933582452883,-0.00013807007979258032
216.0,0.0008774351442511696,0.0001596284218391749,-0.00026505187136633806
216.5,0.0007318592512501266,1.405252883813189e-05,-0.0003830290384068845
217.0,0.0009052820321473184,0.00018747530973532375,-0.00018338597963578769
217.5,0.0007178067224119947,0.0,-0.00034598513352392774
218.0,0.0008834361843234125,0.0001656294619114178,-0.0001567872393349778
218.5,0.0011643626617570447,0.00044655593934505005,0.00014643812148212312
219.0,0.0011153039409794896,0.00039749721856749496,0.0001184484003357749
219.5,0.0011680894917374808,0.0004502827693254861,0.0001911139483946505
220.0,0.001066107396641493,0.00034830067422949836,0.00010786468432580831
